Time,Voltage 
0,-0.054
0.002,-0.063
0.004,-0.071
0.006,-0.0665
0.008,-0.073
0.01,-0.067
0.012,-0.0665
0.014,-0.063
0.016,-0.0755
0.018,-0.0815
0.02,-0.091
0.022,-0.0945
0.024,-0.097
0.026,-0.0965
0.028,-0.086
0.03,-0.0805
0.032,-0.077
0.034,-0.076
0.036,-0.0855
0.038,-0.0865
0.04,-0.098
0.042,-0.107
0.044,-0.1035
0.046,-0.103
0.048,-0.0955
0.05,-0.0865
0.052,-0.091
0.054,-0.078
0.056,-0.0925
0.058,-0.101
0.06,-0.1085
0.062,-0.106
0.064,-0.112
0.066,-0.1045
0.068,-0.1015
0.07,-0.1015
0.072,-0.093
0.074,-0.095
0.076,-0.099
0.078,-0.104
0.08,-0.1125
0.082,-0.1115
0.084,-0.1195
0.086,-0.113
0.088,-0.11
0.09,-0.1005
0.092,-0.0955
0.094,-0.091
0.096,-0.096
0.098,-0.102
0.1,-0.1135
0.102,-0.112
0.104,-0.1245
0.106,-0.1175
0.108,-0.113
0.11,-0.0995
0.112,-0.1
0.114,-0.097
0.116,-0.1055
0.118,-0.1145
0.12,-0.1235
0.122,-0.1275
0.124,-0.128
0.126,-0.1305
0.128,-0.1275
0.13,-0.1155
0.132,-0.1195
0.134,-0.118
0.136,-0.1185
0.138,-0.123
0.14,-0.1315
0.142,-0.134
0.144,-0.1415
0.146,-0.1355
0.148,-0.1415
0.15,-0.136
0.152,-0.126
0.154,-0.126
0.156,-0.136
0.158,-0.137
0.16,-0.1435
0.162,-0.1475
0.164,-0.156
0.166,-0.146
0.168,-0.148
0.17,-0.1425
0.172,-0.1405
0.174,-0.136
0.176,-0.1465
0.178,-0.148
0.18,-0.1555
0.182,-0.168
0.184,-0.1625
0.186,-0.1605
0.188,-0.1605
0.19,-0.1575
0.192,-0.138
0.194,-0.1415
0.196,-0.1425
0.198,-0.1535
0.2,-0.156
0.202,-0.154
0.204,-0.166
0.206,-0.162
0.208,-0.1515
0.21,-0.1425
0.212,-0.1365
0.214,-0.1305
0.216,-0.139
0.218,-0.141
0.22,-0.147
0.222,-0.151
0.224,-0.1515
0.226,-0.146
0.228,-0.139
0.23,-0.1335
0.232,-0.1305
0.234,-0.135
0.236,-0.1345
0.238,-0.138
0.24,-0.1455
0.242,-0.1415
0.244,-0.1555
0.246,-0.147
0.248,-0.1385
0.25,-0.131
0.252,-0.129
0.254,-0.1245
0.256,-0.131
0.258,-0.138
0.26,-0.149
0.262,-0.1475
0.264,-0.1495
0.266,-0.146
0.268,-0.1455
0.27,-0.1325
0.272,-0.124
0.274,-0.127
0.276,-0.126
0.278,-0.1315
0.28,-0.1455
0.282,-0.1375
0.284,-0.147
0.286,-0.139
0.288,-0.1345
0.29,-0.132
0.292,-0.1255
0.294,-0.125
0.296,-0.1315
0.298,-0.134
0.3,-0.144
0.302,-0.148
0.304,-0.157
0.306,-0.143
0.308,-0.151
0.31,-0.1425
0.312,-0.1355
0.314,-0.133
0.316,-0.129
0.318,-0.143
0.32,-0.149
0.322,-0.149
0.324,-0.1575
0.326,-0.148
0.328,-0.143
0.33,-0.1415
0.332,-0.131
0.334,-0.1265
0.336,-0.138
0.338,-0.145
0.34,-0.147
0.342,-0.1615
0.344,-0.1575
0.346,-0.1625
0.348,-0.1505
0.35,-0.15
0.352,-0.1395
0.354,-0.144
0.356,-0.141
0.358,-0.151
0.36,-0.157
0.362,-0.1595
0.364,-0.1645
0.366,-0.159
0.368,-0.1555
0.37,-0.1525
0.372,-0.1445
0.374,-0.1455
0.376,-0.149
0.378,-0.1635
0.38,-0.1575
0.382,-0.17
0.384,-0.175
0.386,-0.169
0.388,-0.163
0.39,-0.154
0.392,-0.149
0.394,-0.152
0.396,-0.157
0.398,-0.1565
0.4,-0.166
0.402,-0.167
0.404,-0.174
0.406,-0.168
0.408,-0.1635
0.41,-0.159
0.412,-0.1445
0.414,-0.1475
0.416,-0.1535
0.418,-0.164
0.42,-0.1675
0.422,-0.1705
0.424,-0.1665
0.426,-0.1665
0.428,-0.1655
0.43,-0.1595
0.432,-0.1555
0.434,-0.1555
0.436,-0.155
0.438,-0.161
0.44,-0.1685
0.442,-0.1835
0.444,-0.186
0.446,-0.181
0.448,-0.17
0.45,-0.138
0.452,-0.1355
0.454,-0.121
0.456,-0.1295
0.458,-0.13
0.46,-0.1365
0.462,-0.145
0.464,-0.1615
0.466,-0.1795
0.468,-0.201
0.47,-0.185
0.472,-0.173
0.474,-0.1645
0.476,-0.1785
0.478,-0.1995
0.48,-0.206
0.482,-0.2355
0.484,-0.2285
0.486,-0.225
0.488,-0.2305
0.49,-0.238
0.492,-0.258
0.494,-0.281
0.496,-0.2835
0.498,-0.289
0.5,-0.282
0.502,-0.287
0.504,-0.2945
0.506,-0.2785
0.508,-0.2625
0.51,-0.2505
0.512,-0.253
0.514,-0.2365
0.516,-0.2385
0.518,-0.2235
0.52,-0.215
0.522,-0.196
0.524,-0.192
0.526,-0.178
0.528,-0.1795
0.53,-0.1675
0.532,-0.166
0.534,-0.1625
0.536,-0.1505
0.538,-0.1545
0.54,-0.1645
0.542,-0.1675
0.544,-0.173
0.546,-0.161
0.548,-0.1615
0.55,-0.145
0.552,-0.143
0.554,-0.1305
0.556,-0.1385
0.558,-0.1335
0.56,-0.1395
0.562,-0.1325
0.564,-0.1135
0.566,-0.0825
0.568,-0.0445
0.57,0.014
0.572,0.056
0.574,0.108
0.576,0.1235
0.578,0.139
0.58,0.1045
0.582,0.0615
0.584,-0.021
0.586,-0.062
0.588,-0.1155
0.59,-0.1345
0.592,-0.187
0.594,-0.2605
0.596,-0.3325
0.598,-0.3615
0.6,-0.459
0.602,-0.492
0.604,-0.521
0.606,-0.483
0.608,-0.4185
0.61,-0.38
0.612,-0.3025
0.614,-0.2045
0.616,-0.179
0.618,-0.1155
0.62,-0.0035
0.622,0.078
0.624,0.1335
0.626,0.221
0.628,0.2605
0.63,0.2375
0.632,0.1445
0.634,0.1345
0.636,0.0785
0.638,0.089
0.64,0.0925
0.642,0.0995
0.644,0.0935
0.646,0.092
0.648,0.084
0.65,0.0405
0.652,0.0135
0.654,-0.0055
0.656,-0.0215
0.658,-0.041
0.66,-0.046
0.662,-0.0525
0.664,-0.064
0.666,-0.066
0.668,-0.062
0.67,-0.0565
0.672,-0.057
0.674,-0.0545
0.676,-0.0665
0.678,-0.069
0.68,-0.079
0.682,-0.0775
0.684,-0.0865
0.686,-0.089
0.688,-0.076
0.69,-0.075
0.692,-0.073
0.694,-0.071
0.696,-0.0735
0.698,-0.084
0.7,-0.09
0.702,-0.0905
0.704,-0.092
0.706,-0.0865
0.708,-0.0835
0.71,-0.076
0.712,-0.0685
0.714,-0.0725
0.716,-0.074
0.718,-0.086
0.72,-0.0935
0.722,-0.097
0.724,-0.1065
0.726,-0.093
0.728,-0.0895
0.73,-0.089
0.732,-0.0875
0.734,-0.078
0.736,-0.078
0.738,-0.0865
0.74,-0.0925
0.742,-0.1
0.744,-0.0995
0.746,-0.1
0.748,-0.0975
0.75,-0.087
0.752,-0.0845
0.754,-0.079
0.756,-0.0835
0.758,-0.0885
0.76,-0.1015
0.762,-0.103
0.764,-0.1065
0.766,-0.0965
0.768,-0.0955
0.77,-0.0895
0.772,-0.0855
0.774,-0.084
0.776,-0.095
0.778,-0.0935
0.78,-0.1045
0.782,-0.1105
0.784,-0.1155
0.786,-0.112
0.788,-0.11
0.79,-0.1005
0.792,-0.099
0.794,-0.104
0.796,-0.1005
0.798,-0.1095
0.8,-0.1165
0.802,-0.12
0.804,-0.121
0.806,-0.119
0.808,-0.113
0.81,-0.106
0.812,-0.1095
0.814,-0.1025
0.816,-0.1075
0.818,-0.1115
0.82,-0.119
0.822,-0.124
0.824,-0.1345
0.826,-0.1295
0.828,-0.127
0.83,-0.1175
0.832,-0.106
0.834,-0.107
0.836,-0.1185
0.838,-0.1185
0.84,-0.1265
0.842,-0.1215
0.844,-0.126
0.846,-0.1245
0.848,-0.1225
0.85,-0.11
0.852,-0.1065
0.854,-0.0995
0.856,-0.1115
0.858,-0.11
0.86,-0.1125
0.862,-0.117
0.864,-0.1265
0.866,-0.1125
0.868,-0.1055
0.87,-0.0985
0.872,-0.0965
0.874,-0.087
0.876,-0.0885
0.878,-0.091
0.88,-0.1
0.882,-0.1065
0.884,-0.109
0.886,-0.1055
0.888,-0.0995
0.89,-0.088
0.892,-0.0875
0.894,-0.084
0.896,-0.0845
0.898,-0.101
0.9,-0.1025
0.902,-0.1055
0.904,-0.11
0.906,-0.101
0.908,-0.0995
0.91,-0.0865
0.912,-0.0875
0.914,-0.075
0.916,-0.0845
0.918,-0.084
0.92,-0.093
0.922,-0.093
0.924,-0.097
0.926,-0.0965
0.928,-0.0855
0.93,-0.085
0.932,-0.082
0.934,-0.08
0.936,-0.076
0.938,-0.086
0.94,-0.0895
0.942,-0.0925
0.944,-0.098
0.946,-0.0935
0.948,-0.093
0.95,-0.0765
0.952,-0.076
0.954,-0.0755
0.956,-0.079
0.958,-0.084
0.96,-0.0845
0.962,-0.0945
0.964,-0.098
0.966,-0.0965
0.968,-0.093
0.97,-0.084
0.972,-0.0805
0.974,-0.0825
0.976,-0.0795
0.978,-0.085
0.98,-0.094
0.982,-0.0975
0.984,-0.1045
0.986,-0.0985
0.988,-0.097
0.99,-0.0895
0.992,-0.081
0.994,-0.079
0.996,-0.0825
0.998,-0.0865
1,-0.0995
1.002,-0.094
1.004,-0.101
1.006,-0.0975
1.008,-0.09
1.01,-0.089
1.012,-0.0855
1.014,-0.079
1.016,-0.087
1.018,-0.0965
1.02,-0.1005
1.022,-0.099
1.024,-0.1125
1.026,-0.103
1.028,-0.097
1.03,-0.09
1.032,-0.09
1.034,-0.0855
1.036,-0.086
1.038,-0.0915
1.04,-0.1
1.042,-0.1115
1.044,-0.1135
1.046,-0.1115
1.048,-0.0985
1.05,-0.0965
1.052,-0.0905
1.054,-0.083
1.056,-0.093
1.058,-0.091
1.06,-0.102
1.062,-0.1085
1.064,-0.1105
1.066,-0.1095
1.068,-0.106
1.07,-0.101
1.072,-0.099
1.074,-0.088
1.076,-0.0885
1.078,-0.096
1.08,-0.1005
1.082,-0.108
1.084,-0.111
1.086,-0.109
1.088,-0.1075
1.09,-0.093
1.092,-0.0965
1.094,-0.086
1.096,-0.091
1.098,-0.1015
1.1,-0.1165
1.102,-0.115
1.104,-0.117
1.106,-0.106
1.108,-0.087
1.11,-0.0715
1.112,-0.066
1.114,-0.059
1.116,-0.057
1.118,-0.065
1.12,-0.0735
1.122,-0.096
1.124,-0.132
1.126,-0.139
1.128,-0.1205
1.13,-0.114
1.132,-0.111
1.134,-0.1225
1.136,-0.1335
1.138,-0.1545
1.14,-0.1695
1.142,-0.166
1.144,-0.1845
1.146,-0.19
1.148,-0.1955
1.15,-0.208
1.152,-0.2165
1.154,-0.2115
1.156,-0.2095
1.158,-0.213
1.16,-0.217
1.162,-0.2175
1.164,-0.219
1.166,-0.2085
1.168,-0.201
1.17,-0.1965
1.172,-0.1855
1.174,-0.17
1.176,-0.141
1.178,-0.14
1.18,-0.13
1.182,-0.123
1.184,-0.1245
1.186,-0.126
1.188,-0.1145
1.19,-0.104
1.192,-0.0945
1.194,-0.092
1.196,-0.0905
1.198,-0.094
1.2,-0.1035
1.202,-0.113
1.204,-0.1175
1.206,-0.1125
1.208,-0.1015
1.21,-0.092
1.212,-0.0885
1.214,-0.0795
1.216,-0.075
1.218,-0.0725
1.22,-0.0565
1.222,-0.0415
1.224,-0.005
1.226,0.0355
1.228,0.084
1.23,0.137
1.232,0.179
1.234,0.202
1.236,0.1955
1.238,0.1675
1.24,0.0985
1.242,0.036
1.244,-0.0265
1.246,-0.059
1.248,-0.093
1.25,-0.1355
1.252,-0.254
1.254,-0.295
1.256,-0.345
1.258,-0.405
1.26,-0.4425
1.262,-0.47
1.264,-0.42
1.266,-0.3695
1.268,-0.3255
1.27,-0.2295
1.272,-0.167
1.274,-0.0995
1.276,-0.0175
1.278,0.095
1.28,0.1655
1.282,0.242
1.284,0.2905
1.286,0.2875
1.288,0.18
1.29,0.1635
1.292,0.1295
1.294,0.1275
1.296,0.1465
1.298,0.144
1.3,0.15
1.302,0.143
1.304,0.129
1.306,0.0845
1.308,0.0505
1.31,0.0365
1.312,0.0245
1.314,0.021
1.316,0.02
1.318,0.006
1.32,0.004
1.322,-0.0115
1.324,-0.017
1.326,-0.0195
1.328,-0.0135
1.33,-0.0125
1.332,-0.007
1.334,-0.01
1.336,-0.008
1.338,-0.0205
1.34,-0.0225
1.342,-0.028
1.344,-0.0315
1.346,-0.0335
1.348,-0.0305
1.35,-0.025
1.352,-0.021
1.354,-0.0195
1.356,-0.021
1.358,-0.0285
1.36,-0.033
1.362,-0.039
1.364,-0.0445
1.366,-0.0395
1.368,-0.0355
1.37,-0.0315
1.372,-0.03
1.374,-0.0295
1.376,-0.0275
1.378,-0.0345
1.38,-0.0375
1.382,-0.042
1.384,-0.047
1.386,-0.048
1.388,-0.0415
1.39,-0.0385
1.392,-0.0305
1.394,-0.0245
1.396,-0.0285
1.398,-0.034
1.4,-0.038
1.402,-0.0485
1.404,-0.047
1.406,-0.0505
1.408,-0.047
1.41,-0.0375
1.412,-0.0355
1.414,-0.0325
1.416,-0.034
1.418,-0.04
1.42,-0.0455
1.422,-0.047
1.424,-0.0595
1.426,-0.0565
1.428,-0.05
1.43,-0.0435
1.432,-0.039
1.434,-0.0355
1.436,-0.033
1.438,-0.0415
1.44,-0.0495
1.442,-0.055
1.444,-0.0585
1.446,-0.057
1.448,-0.052
1.45,-0.0525
1.452,-0.046
1.454,-0.044
1.456,-0.0505
1.458,-0.0535
1.46,-0.06
1.462,-0.0695
1.464,-0.0745
1.466,-0.075
1.468,-0.075
1.47,-0.068
1.472,-0.063
1.474,-0.058
1.476,-0.0655
1.478,-0.0725
1.48,-0.076
1.482,-0.0805
1.484,-0.09
1.486,-0.0895
1.488,-0.085
1.49,-0.079
1.492,-0.0765
1.494,-0.073
1.496,-0.0745
1.498,-0.0745
1.5,-0.079
1.502,-0.0845
1.504,-0.091
1.506,-0.089
1.508,-0.0855
1.51,-0.0805
1.512,-0.072
1.514,-0.0685
1.516,-0.069
1.518,-0.075
1.52,-0.0805
1.522,-0.0845
1.524,-0.0885
1.526,-0.09
1.528,-0.0765
1.53,-0.073
1.532,-0.0695
1.534,-0.0645
1.536,-0.066
1.538,-0.0725
1.54,-0.076
1.542,-0.079
1.544,-0.081
1.546,-0.085
1.548,-0.083
1.55,-0.0665
1.552,-0.062
1.554,-0.063
1.556,-0.062
1.558,-0.0705
1.56,-0.0785
1.562,-0.0795
1.564,-0.083
1.566,-0.083
1.568,-0.0775
1.57,-0.074
1.572,-0.065
1.574,-0.0605
1.576,-0.0625
1.578,-0.0725
1.58,-0.073
1.582,-0.0795
1.584,-0.085
1.586,-0.0855
1.588,-0.075
1.59,-0.074
1.592,-0.0655
1.594,-0.0645
1.596,-0.06
1.598,-0.0685
1.6,-0.0765
1.602,-0.082
1.604,-0.0865
1.606,-0.086
1.608,-0.0775
1.61,-0.075
1.612,-0.068
1.614,-0.0675
1.616,-0.0645
1.618,-0.071
1.62,-0.079
1.622,-0.0825
1.624,-0.0855
1.626,-0.0895
1.628,-0.085
1.63,-0.0745
1.632,-0.0755
1.634,-0.0665
1.636,-0.068
1.638,-0.0805
1.64,-0.078
1.642,-0.0855
1.644,-0.0885
1.646,-0.091
1.648,-0.085
1.65,-0.0795
1.652,-0.0805
1.654,-0.0755
1.656,-0.07
1.658,-0.082
1.66,-0.0825
1.662,-0.09
1.664,-0.093
1.666,-0.0965
1.668,-0.09
1.67,-0.084
1.672,-0.0835
1.674,-0.0775
1.676,-0.078
1.678,-0.084
1.68,-0.0895
1.682,-0.0995
1.684,-0.098
1.686,-0.1025
1.688,-0.0935
1.69,-0.091
1.692,-0.0835
1.694,-0.082
1.696,-0.079
1.698,-0.09
1.7,-0.093
1.702,-0.1
1.704,-0.098
1.706,-0.1045
1.708,-0.096
1.71,-0.0915
1.712,-0.089
1.714,-0.083
1.716,-0.0825
1.718,-0.091
1.72,-0.093
1.722,-0.1025
1.724,-0.1
1.726,-0.1035
1.728,-0.0955
1.73,-0.0915
1.732,-0.0915
1.734,-0.0855
1.736,-0.0865
1.738,-0.092
1.74,-0.095
1.742,-0.103
1.744,-0.1055
1.746,-0.109
1.748,-0.0965
1.75,-0.095
1.752,-0.0855
1.754,-0.0845
1.756,-0.079
1.758,-0.099
1.76,-0.103
1.762,-0.1045
1.764,-0.1025
1.766,-0.087
1.768,-0.0765
1.77,-0.0655
1.772,-0.063
1.774,-0.055
1.776,-0.0495
1.778,-0.061
1.78,-0.0825
1.782,-0.1135
1.784,-0.138
1.786,-0.1275
1.788,-0.111
1.79,-0.1065
1.792,-0.1195
1.794,-0.1265
1.796,-0.135
1.798,-0.155
1.8,-0.15
1.802,-0.17
1.804,-0.1845
1.806,-0.1985
1.808,-0.2105
1.81,-0.2225
1.812,-0.2115
1.814,-0.2035
1.816,-0.1935
1.818,-0.2045
1.82,-0.212
1.822,-0.211
1.824,-0.2075
1.826,-0.212
1.828,-0.2025
1.83,-0.1925
1.832,-0.1725
1.834,-0.1465
1.836,-0.1285
1.838,-0.1285
1.84,-0.122
1.842,-0.118
1.844,-0.1215
1.846,-0.1215
1.848,-0.1065
1.85,-0.0985
1.852,-0.0935
1.854,-0.09
1.856,-0.0815
1.858,-0.0905
1.86,-0.0935
1.862,-0.101
1.864,-0.1055
1.866,-0.102
1.868,-0.0935
1.87,-0.0915
1.872,-0.081
1.874,-0.0705
1.876,-0.0645
1.878,-0.06
1.88,-0.041
1.882,-0.0215
1.884,0.0175
1.886,0.0595
1.888,0.112
1.89,0.152
1.892,0.187
1.894,0.201
1.896,0.19
1.898,0.142
1.9,0.071
1.902,0.0185
1.904,-0.0475
1.906,-0.0605
1.908,-0.103
1.91,-0.178
1.912,-0.266
1.914,-0.295
1.916,-0.36
1.918,-0.3975
1.92,-0.44
1.922,-0.428
1.924,-0.3985
1.926,-0.3625
1.928,-0.28
1.93,-0.1905
1.932,-0.1095
1.934,-0.038
1.936,0.0905
1.938,0.1595
1.94,0.236
1.942,0.2845
1.944,0.296
1.946,0.1855
1.948,0.1315
1.95,0.1085
1.952,0.094
1.954,0.1245
1.956,0.133
1.958,0.1385
1.96,0.136
1.962,0.1245
1.964,0.083
1.966,0.047
1.968,0.0315
1.97,0.0155
1.972,0.013
1.974,0.018
1.976,0.012
1.978,0.0025
1.98,-0.003
1.982,-0.0095
1.984,-0.015
1.986,-0.022
1.988,-0.0205
1.99,-0.0145
1.992,-0.0105
1.994,-0.009
1.996,-0.01
1.998,-0.017
2,-0.0265
2.002,-0.03
2.004,-0.037
2.006,-0.042
2.008,-0.0375
2.01,-0.0315
2.012,-0.027
2.014,-0.022
2.016,-0.0185
2.018,-0.0285
2.02,-0.032
2.022,-0.046
2.024,-0.0425
2.026,-0.049
2.028,-0.0385
2.03,-0.039
2.032,-0.0335
2.034,-0.0325
2.036,-0.0265
2.038,-0.035
2.04,-0.0395
2.042,-0.045
2.044,-0.05
2.046,-0.051
2.048,-0.043
2.05,-0.039
2.052,-0.0325
2.054,-0.029
2.056,-0.028
2.058,-0.036
2.06,-0.0405
2.062,-0.0495
2.064,-0.05
2.066,-0.054
2.068,-0.055
2.07,-0.047
2.072,-0.0415
2.074,-0.0365
2.076,-0.034
2.078,-0.0495
2.08,-0.043
2.082,-0.055
2.084,-0.0575
2.086,-0.061
2.088,-0.0535
2.09,-0.051
2.092,-0.046
2.094,-0.0455
2.096,-0.044
2.098,-0.055
2.1,-0.0535
2.102,-0.062
2.104,-0.0635
2.106,-0.068
2.108,-0.063
2.11,-0.0625
2.112,-0.054
2.114,-0.058
2.116,-0.049
2.118,-0.057
2.12,-0.0675
2.122,-0.0725
2.124,-0.079
2.126,-0.0855
2.128,-0.0795
2.13,-0.0775
2.132,-0.0705
2.134,-0.068
2.136,-0.0655
2.138,-0.074
2.14,-0.079
2.142,-0.093
2.144,-0.0945
2.146,-0.095
2.148,-0.093
2.15,-0.0895
2.152,-0.084
2.154,-0.08
2.156,-0.0795
2.158,-0.088
2.16,-0.092
2.162,-0.0975
2.164,-0.0985
2.166,-0.103
2.168,-0.094
2.17,-0.0935
2.172,-0.0885
2.174,-0.0775
2.176,-0.0785
2.178,-0.089
2.18,-0.088
2.182,-0.096
2.184,-0.096
2.186,-0.102
2.188,-0.0915
2.19,-0.0865
2.192,-0.0855
2.194,-0.073
2.196,-0.072
2.198,-0.0745
2.2,-0.077
2.202,-0.083
2.204,-0.0825
2.206,-0.087
2.208,-0.08
2.21,-0.075
2.212,-0.076
2.214,-0.058
2.216,-0.061
2.218,-0.073
2.22,-0.07
2.222,-0.079
2.224,-0.086
2.226,-0.091
2.228,-0.079
2.23,-0.076
2.232,-0.0705
2.234,-0.069
2.236,-0.063
2.238,-0.0675
2.24,-0.072
2.242,-0.0865
2.244,-0.083
2.246,-0.0815
2.248,-0.077
2.25,-0.075
2.252,-0.0665
2.254,-0.0635
2.256,-0.061
2.258,-0.074
2.26,-0.071
2.262,-0.078
2.264,-0.0815
2.266,-0.086
2.268,-0.078
2.27,-0.0765
2.272,-0.0615
2.274,-0.0625
2.276,-0.057
2.278,-0.0625
2.28,-0.068
2.282,-0.0805
2.284,-0.0755
2.286,-0.0855
2.288,-0.0755
2.29,-0.0715
2.292,-0.07
2.294,-0.063
2.296,-0.063
2.298,-0.0715
2.3,-0.0755
2.302,-0.0825
2.304,-0.088
2.306,-0.085
2.308,-0.088
2.31,-0.08
2.312,-0.0775
2.314,-0.078
2.316,-0.0705
2.318,-0.0735
2.32,-0.086
2.322,-0.086
2.324,-0.09
2.326,-0.089
2.328,-0.0875
2.33,-0.0755
2.332,-0.077
2.334,-0.0705
2.336,-0.0675
2.338,-0.08
2.34,-0.082
2.342,-0.0845
2.344,-0.0885
2.346,-0.094
2.348,-0.0905
2.35,-0.0785
2.352,-0.0735
2.354,-0.0735
2.356,-0.0715
2.358,-0.0725
2.36,-0.0785
2.362,-0.088
2.364,-0.089
2.366,-0.0995
2.368,-0.089
2.37,-0.083
2.372,-0.078
2.374,-0.08
2.376,-0.0755
2.378,-0.081
2.38,-0.0895
2.382,-0.0955
2.384,-0.0985
2.386,-0.1035
2.388,-0.0925
2.39,-0.089
2.392,-0.085
2.394,-0.085
2.396,-0.0685
2.398,-0.0805
2.4,-0.0895
2.402,-0.0875
2.404,-0.089
2.406,-0.0955
2.408,-0.0925
2.41,-0.085
2.412,-0.0735
2.414,-0.077
2.416,-0.07
2.418,-0.0755
2.42,-0.0845
2.422,-0.089
2.424,-0.0945
2.426,-0.1085
2.428,-0.099
2.43,-0.0905
2.432,-0.0675
2.434,-0.057
2.436,-0.047
2.438,-0.0545
2.44,-0.0535
2.442,-0.06
2.444,-0.06
2.446,-0.0795
2.448,-0.095
2.45,-0.113
2.452,-0.1035
2.454,-0.091
2.456,-0.0885
2.458,-0.1025
2.46,-0.1265
2.462,-0.149
2.464,-0.1625
2.466,-0.1505
2.468,-0.1545
2.47,-0.165
2.472,-0.171
2.474,-0.179
2.476,-0.193
2.478,-0.201
2.48,-0.197
2.482,-0.2085
2.484,-0.201
2.486,-0.2075
2.488,-0.202
2.49,-0.1865
2.492,-0.18
2.494,-0.1785
2.496,-0.1695
2.498,-0.1675
2.5,-0.147
2.502,-0.1335
2.504,-0.124
2.506,-0.118
2.508,-0.102
2.51,-0.102
2.512,-0.085
2.514,-0.084
2.516,-0.0745
2.518,-0.0825
2.52,-0.0865
2.522,-0.0925
2.524,-0.0905
2.526,-0.0995
2.528,-0.088
2.53,-0.0845
2.532,-0.079
2.534,-0.071
2.536,-0.0665
2.538,-0.0695
2.54,-0.074
2.542,-0.0765
2.544,-0.0605
2.546,-0.044
2.548,-0.0095
2.55,0.035
2.552,0.082
2.554,0.137
2.556,0.1705
2.558,0.205
2.56,0.214
2.562,0.182
2.564,0.145
2.566,0.07
2.568,0.024
2.57,-0.03
2.572,-0.042
2.574,-0.0935
2.576,-0.1555
2.578,-0.262
2.58,-0.285
2.582,-0.385
2.584,-0.422
2.586,-0.462
2.588,-0.441
2.59,-0.3835
2.592,-0.341
2.594,-0.2675
2.596,-0.1565
2.598,-0.1275
2.6,-0.0685
2.602,0.041
2.604,0.135
2.606,0.201
2.608,0.2835
2.61,0.3225
2.612,0.2825
2.614,0.1895
2.616,0.181
2.618,0.127
2.62,0.137
2.622,0.14
2.624,0.143
2.626,0.14
2.628,0.1485
2.63,0.139
2.632,0.1045
2.634,0.0745
2.636,0.057
2.638,0.038
2.64,0.0255
2.642,0.0145
2.644,0.0025
2.646,-0.003
2.648,-0.0055
2.65,-0.0065
2.652,0.009
2.654,0.0075
2.656,0.0055
2.658,0.0005
2.66,-0.0085
2.662,-0.014
2.664,-0.023
2.666,-0.027
2.668,-0.019
2.67,-0.019
2.672,-0.0145
2.674,-0.012
2.676,-0.0105
2.678,-0.014
2.68,-0.02
2.682,-0.032
2.684,-0.0255
2.686,-0.0345
2.688,-0.03
2.69,-0.0265
2.692,-0.0195
2.694,-0.017
2.696,-0.0145
2.698,-0.021
2.7,-0.0225
2.702,-0.038
2.704,-0.034
2.706,-0.038
2.708,-0.031
2.71,-0.034
2.712,-0.02
2.714,-0.0245
2.716,-0.02
2.718,-0.023
2.72,-0.031
2.722,-0.04
2.724,-0.0485
2.726,-0.044
2.728,-0.04
2.73,-0.042
2.732,-0.0255
2.734,-0.0305
2.736,-0.023
2.738,-0.029
2.74,-0.036
2.742,-0.0495
2.744,-0.044
2.746,-0.0545
2.748,-0.047
2.75,-0.0405
2.752,-0.0345
2.754,-0.0345
2.756,-0.0295
2.758,-0.033
2.76,-0.036
2.762,-0.0485
2.764,-0.055
2.766,-0.0575
2.768,-0.055
2.77,-0.041
2.772,-0.043
2.774,-0.0445
2.776,-0.035
2.778,-0.06
2.78,-0.044
2.782,-0.069
2.784,-0.0655
2.786,-0.066
2.788,-0.071
2.79,-0.065
2.792,-0.057
2.794,-0.0625
2.796,-0.056
2.798,-0.052
2.8,-0.063
2.802,-0.0745
2.804,-0.0725
2.806,-0.0775
2.808,-0.077
2.81,-0.074
2.812,-0.0675
2.814,-0.07
2.816,-0.0625
2.818,-0.075
2.82,-0.0665
2.822,-0.08
2.824,-0.0805
2.826,-0.081
2.828,-0.083
2.83,-0.079
2.832,-0.067
2.834,-0.0665
2.836,-0.06
2.838,-0.0655
2.84,-0.07
2.842,-0.08
2.844,-0.068
2.846,-0.0795
2.848,-0.075
2.85,-0.0665
2.852,-0.0645
2.854,-0.0495
2.856,-0.046
2.858,-0.049
2.86,-0.053
2.862,-0.0575
2.864,-0.06
2.866,-0.064
2.868,-0.06
2.87,-0.0515
2.872,-0.0475
2.874,-0.057
2.876,-0.0365
2.878,-0.0465
2.88,-0.0535
2.882,-0.063
2.884,-0.062
2.886,-0.0695
2.888,-0.063
2.89,-0.054
2.892,-0.051
2.894,-0.0515
2.896,-0.0355
2.898,-0.04
2.9,-0.0475
2.902,-0.0565
2.904,-0.054
2.906,-0.0625
2.908,-0.0575
2.91,-0.052
2.912,-0.039
2.914,-0.038
2.916,-0.0315
2.918,-0.0405
2.92,-0.053
2.922,-0.056
2.924,-0.0575
2.926,-0.0635
2.928,-0.052
2.93,-0.056
2.932,-0.0495
2.934,-0.0475
2.936,-0.0365
2.938,-0.044
2.94,-0.043
2.942,-0.053
2.944,-0.061
2.946,-0.062
2.948,-0.055
2.95,-0.0535
2.952,-0.052
2.954,-0.0395
2.956,-0.0405
2.958,-0.042
2.96,-0.0545
2.962,-0.06
2.964,-0.066
2.966,-0.0645
2.968,-0.0585
2.97,-0.0585
2.972,-0.0535
2.974,-0.0505
2.976,-0.0405
2.978,-0.054
2.98,-0.057
2.982,-0.0565
2.984,-0.0625
2.986,-0.0695
2.988,-0.066
2.99,-0.0615
2.992,-0.0585
2.994,-0.0545
2.996,-0.047
2.998,-0.058
3,-0.056
3.002,-0.067
3.004,-0.074
3.006,-0.0755
3.008,-0.0695
3.01,-0.0595
3.012,-0.063
3.014,-0.057
3.016,-0.0485
3.018,-0.06
3.02,-0.0645
3.022,-0.0745
3.024,-0.0765
3.026,-0.081
3.028,-0.081
3.03,-0.0765
3.032,-0.07
3.034,-0.0595
3.036,-0.054
3.038,-0.062
3.04,-0.071
3.042,-0.086
3.044,-0.079
3.046,-0.089
3.048,-0.082
3.05,-0.08
3.052,-0.068
3.054,-0.0695
3.056,-0.058
3.058,-0.0635
3.06,-0.072
3.062,-0.0745
3.064,-0.076
3.066,-0.081
3.068,-0.074
3.07,-0.08
3.072,-0.0705
3.074,-0.0635
3.076,-0.0635
3.078,-0.068
3.08,-0.081
3.082,-0.0805
3.084,-0.0895
3.086,-0.09
3.088,-0.0905
3.09,-0.079
3.092,-0.081
3.094,-0.075
3.096,-0.068
3.098,-0.064
3.1,-0.061
3.102,-0.0565
3.104,-0.054
3.106,-0.0635
3.108,-0.054
3.11,-0.0475
3.112,-0.042
3.114,-0.054
3.116,-0.069
3.118,-0.1045
3.12,-0.102
3.122,-0.098
3.124,-0.0985
3.126,-0.1125
3.128,-0.126
3.13,-0.1335
3.132,-0.132
3.134,-0.132
3.136,-0.1305
3.138,-0.1535
3.14,-0.1535
3.142,-0.1815
3.144,-0.2065
3.146,-0.2115
3.148,-0.2055
3.15,-0.2015
3.152,-0.192
3.154,-0.1885
3.156,-0.182
3.158,-0.1705
3.16,-0.1765
3.162,-0.1715
3.164,-0.1785
3.166,-0.1815
3.168,-0.1475
3.17,-0.125
3.172,-0.1015
3.174,-0.0885
3.176,-0.074
3.178,-0.0805
3.18,-0.0855
3.182,-0.0885
3.184,-0.0935
3.186,-0.0975
3.188,-0.084
3.19,-0.081
3.192,-0.076
3.194,-0.071
3.196,-0.07
3.198,-0.0665
3.2,-0.0745
3.202,-0.0795
3.204,-0.0765
3.206,-0.0795
3.208,-0.072
3.21,-0.0605
3.212,-0.04
3.214,-0.0095
3.216,0.029
3.218,0.0635
3.22,0.0975
3.222,0.135
3.224,0.1755
3.226,0.1805
3.228,0.1965
3.23,0.1855
3.232,0.1415
3.234,0.078
3.236,0.0345
3.238,-0.0285
3.24,-0.059
3.242,-0.1225
3.244,-0.2185
3.246,-0.2895
3.248,-0.3085
3.25,-0.4005
3.252,-0.4145
3.254,-0.441
3.256,-0.394
3.258,-0.3375
3.26,-0.317
3.262,-0.232
3.264,-0.1625
3.266,-0.1225
3.268,-0.0535
3.27,0.076
3.272,0.164
3.274,0.2375
3.276,0.314
3.278,0.3405
3.28,0.27
3.282,0.1865
3.284,0.1725
3.286,0.132
3.288,0.1485
3.29,0.1585
3.292,0.173
3.294,0.181
3.296,0.18
3.298,0.1475
3.3,0.092
3.302,0.064
3.304,0.0405
3.306,0.0215
3.308,0.014
3.31,0.0185
3.312,0.0145
3.314,0.0175
3.316,0.018
3.318,0.016
3.32,0.008
3.322,-0.002
3.324,-0.0035
3.326,-0.0175
3.328,-0.0165
3.33,-0.012
3.332,-0.0035
3.334,-0.003
3.336,-0.0065
3.338,-0.008
3.34,-0.0145
3.342,-0.021
3.344,-0.026
3.346,-0.0255
3.348,-0.0255
3.35,-0.015
3.352,-0.023
3.354,-0.017
3.356,-0.009
3.358,-0.0065
3.36,-0.02
3.362,-0.027
3.364,-0.0295
3.366,-0.034
3.368,-0.0375
3.37,-0.0215
3.372,-0.019
3.374,-0.0175
3.376,-0.0145
3.378,-0.0145
3.38,-0.0235
3.382,-0.0315
3.384,-0.035
3.386,-0.0355
3.388,-0.037
3.39,-0.031
3.392,-0.0245
3.394,-0.0195
3.396,-0.0155
3.398,-0.018
3.4,-0.0265
3.402,-0.0375
3.404,-0.0435
3.406,-0.049
3.408,-0.0415
3.41,-0.0335
3.412,-0.035
3.414,-0.018
3.416,-0.019
3.418,-0.019
3.42,-0.029
3.422,-0.0295
3.424,-0.041
3.426,-0.051
3.428,-0.0465
3.43,-0.038
3.432,-0.0405
3.434,-0.0395
3.436,-0.0285
3.438,-0.0325
3.44,-0.045
3.442,-0.0485
3.444,-0.0525
3.446,-0.0525
3.448,-0.0575
3.45,-0.054
3.452,-0.0425
3.454,-0.0435
3.456,-0.0465
3.458,-0.039
3.46,-0.048
3.462,-0.057
3.464,-0.0615
3.466,-0.067
3.468,-0.0655
3.47,-0.0645
3.472,-0.0595
3.474,-0.0565
3.476,-0.051
3.478,-0.0495
3.48,-0.058
3.482,-0.0635
3.484,-0.064
3.486,-0.074
3.488,-0.0675
3.49,-0.065
3.492,-0.06
3.494,-0.056
3.496,-0.05
3.498,-0.0465
3.5,-0.053
3.502,-0.061
3.504,-0.063
3.506,-0.072
3.508,-0.066
3.51,-0.06
3.512,-0.054
3.514,-0.0465
3.516,-0.0405
3.518,-0.042
3.52,-0.054
3.522,-0.0575
3.524,-0.062
3.526,-0.0595
3.528,-0.0615
3.53,-0.05
3.532,-0.0485
3.534,-0.043
3.536,-0.039
3.538,-0.0335
3.54,-0.0415
3.542,-0.0465
3.544,-0.0505
3.546,-0.056
3.548,-0.056
3.55,-0.0495
3.552,-0.043
3.554,-0.0395
3.556,-0.0335
3.558,-0.04
3.56,-0.0395
3.562,-0.051
3.564,-0.051
3.566,-0.0595
3.568,-0.058
3.57,-0.05
3.572,-0.045
3.574,-0.042
3.576,-0.038
3.578,-0.0365
3.58,-0.041
3.582,-0.0485
3.584,-0.0465
3.586,-0.06
3.588,-0.055
3.59,-0.0515
3.592,-0.045
3.594,-0.0355
3.596,-0.031
3.598,-0.03
3.6,-0.042
3.602,-0.0465
3.604,-0.0515
3.606,-0.059
3.608,-0.0545
3.61,-0.0485
3.612,-0.046
3.614,-0.045
3.616,-0.041
3.618,-0.041
3.62,-0.0445
3.622,-0.055
3.624,-0.0575
3.626,-0.0575
3.628,-0.061
3.63,-0.055
3.632,-0.05
3.634,-0.043
3.636,-0.0425
3.638,-0.043
3.64,-0.053
3.642,-0.0565
3.644,-0.0595
3.646,-0.0625
3.648,-0.0625
3.65,-0.059
3.652,-0.0545
3.654,-0.0465
3.656,-0.045
3.658,-0.048
3.66,-0.053
3.662,-0.0575
3.664,-0.066
3.666,-0.0665
3.668,-0.064
3.67,-0.063
3.672,-0.06
3.674,-0.0545
3.676,-0.045
3.678,-0.0475
3.68,-0.053
3.682,-0.061
3.684,-0.0665
3.686,-0.074
3.688,-0.0725
3.69,-0.068
3.692,-0.0655
3.694,-0.064
3.696,-0.0555
3.698,-0.0535
3.7,-0.0585
3.702,-0.063
3.704,-0.0675
3.706,-0.0745
3.708,-0.075
3.71,-0.067
3.712,-0.0645
3.714,-0.0555
3.716,-0.0565
3.718,-0.054
3.72,-0.0645
3.722,-0.0635
3.724,-0.074
3.726,-0.073
3.728,-0.078
3.73,-0.0645
3.732,-0.061
3.734,-0.0555
3.736,-0.055
3.738,-0.057
3.74,-0.067
3.742,-0.0685
3.744,-0.0565
3.746,-0.05
3.748,-0.051
3.75,-0.0405
3.752,-0.037
3.754,-0.0295
3.756,-0.0255
3.758,-0.0345
3.76,-0.0645
3.762,-0.099
3.764,-0.1005
3.766,-0.094
3.768,-0.0865
3.77,-0.0915
3.772,-0.107
3.774,-0.101
3.776,-0.12
3.778,-0.1135
3.78,-0.1225
3.782,-0.1435
3.784,-0.157
3.786,-0.179
3.788,-0.2035
3.79,-0.1955
3.792,-0.1865
3.794,-0.184
3.796,-0.1735
3.798,-0.1695
3.8,-0.171
3.802,-0.176
3.804,-0.1755
3.806,-0.177
3.808,-0.1755
3.81,-0.1605
3.812,-0.1375
3.814,-0.104
3.816,-0.0915
3.818,-0.0815
3.82,-0.0775
3.822,-0.082
3.824,-0.084
3.826,-0.088
3.828,-0.0885
3.83,-0.0745
3.832,-0.0675
3.834,-0.063
3.836,-0.059
3.838,-0.0535
3.84,-0.064
3.842,-0.068
3.844,-0.076
3.846,-0.0755
3.848,-0.0725
3.85,-0.065
3.852,-0.0545
3.854,-0.0405
3.856,-0.0345
3.858,-0.0085
3.86,0.0105
3.862,0.0365
3.864,0.071
3.866,0.1175
3.868,0.168
3.87,0.2055
3.872,0.2265
3.874,0.225
3.876,0.2015
3.878,0.135
3.88,0.07
3.882,0.004
3.884,-0.018
3.886,-0.065
3.888,-0.126
3.89,-0.2325
3.892,-0.2695
3.894,-0.322
3.896,-0.361
3.898,-0.393
3.9,-0.42
3.902,-0.373
3.904,-0.341
3.906,-0.284
3.908,-0.202
3.91,-0.1275
3.912,-0.0675
3.914,0.053
3.916,0.1555
3.918,0.236
3.92,0.3015
3.922,0.3425
3.924,0.295
3.926,0.1845
3.928,0.163
3.93,0.135
3.932,0.1535
3.934,0.175
3.936,0.1825
3.938,0.187
3.94,0.1825
3.942,0.1515
3.944,0.1
3.946,0.076
3.948,0.055
3.95,0.0375
3.952,0.042
3.954,0.0495
3.956,0.0465
3.958,0.045
3.96,0.0365
3.962,0.027
3.964,0.019
3.966,0.0145
3.968,0.012
3.97,0.018
3.972,0.015
3.974,0.0235
3.976,0.0215
3.978,0.023
3.98,0.0125
3.982,0.0075
3.984,0.003
3.986,-0.0025
3.988,-0.003
3.99,0.0045
3.992,0.0045
3.994,0.014
3.996,0.016
3.998,0.015
4,0.0105
4.002,0.0015
4.004,-0.007
4.006,-0.0075
4.008,-0.006
4.01,0.0025
4.012,0.004
4.014,0.0115
4.016,0.009
4.018,0.015
4.02,0.003
4.022,0.006
4.024,-0.01
4.026,-0.008
4.028,-0.015
4.03,-0.0095
4.032,0.0005
4.034,0.0075
4.036,0.007
4.038,0.0085
4.04,0.002
4.042,0.002
4.044,-0.005
4.046,-0.0105
4.048,-0.0145
4.05,-0.009
4.052,-0.003
4.054,0
4.056,0.0045
4.058,0.005
4.06,-0.004
4.062,-0.0095
4.064,-0.014
4.066,-0.018
4.068,-0.0215
4.07,-0.0175
4.072,-0.0085
4.074,-0.004
4.076,0
4.078,0.002
4.08,-0.01
4.082,-0.016
4.084,-0.024
4.086,-0.0245
4.088,-0.0295
4.09,-0.0235
4.092,-0.023
4.094,-0.016
4.096,-0.016
4.098,-0.013
4.1,-0.021
4.102,-0.032
4.104,-0.0345
4.106,-0.0395
4.108,-0.0405
4.11,-0.038
4.112,-0.0325
4.114,-0.035
4.116,-0.0265
4.118,-0.0215
4.12,-0.032
4.122,-0.036
4.124,-0.045
4.126,-0.049
4.128,-0.052
4.13,-0.0455
4.132,-0.043
4.134,-0.0365
4.136,-0.0335
4.138,-0.031
4.14,-0.038
4.142,-0.043
4.144,-0.045
4.146,-0.0475
4.148,-0.0495
4.15,-0.045
4.152,-0.043
4.154,-0.034
4.156,-0.0295
4.158,-0.0235
4.16,-0.0365
4.162,-0.0405
4.164,-0.044
4.166,-0.047
4.168,-0.0525
4.17,-0.0415
4.172,-0.0295
4.174,-0.0245
4.176,-0.0265
4.178,-0.0225
4.18,-0.028
4.182,-0.033
4.184,-0.0345
4.186,-0.041
4.188,-0.0395
4.19,-0.037
4.192,-0.027
4.194,-0.026
4.196,-0.023
4.198,-0.0225
4.2,-0.024
4.202,-0.03
4.204,-0.0345
4.206,-0.0395
4.208,-0.0395
4.21,-0.033
4.212,-0.0325
4.214,-0.0245
4.216,-0.016
4.218,-0.015
4.22,-0.029
4.222,-0.029
4.224,-0.0355
4.226,-0.038
4.228,-0.041
4.23,-0.029
4.232,-0.0285
4.234,-0.019
4.236,-0.0205
4.238,-0.012
4.24,-0.0215
4.242,-0.0245
4.244,-0.032
4.246,-0.0335
4.248,-0.038
4.25,-0.0295
4.252,-0.025
4.254,-0.022
4.256,-0.012
4.258,-0.013
4.26,-0.02
4.262,-0.026
4.264,-0.031
4.266,-0.035
4.268,-0.0405
4.27,-0.0285
4.272,-0.0305
4.274,-0.021
4.276,-0.019
4.278,-0.0155
4.28,-0.0225
4.282,-0.0265
4.284,-0.0355
4.286,-0.0425
4.288,-0.046
4.29,-0.0315
4.292,-0.0335
4.294,-0.027
4.296,-0.0175
4.298,-0.017
4.3,-0.03
4.302,-0.0325
4.304,-0.04
4.306,-0.0415
4.308,-0.046
4.31,-0.0415
4.312,-0.0335
4.314,-0.028
4.316,-0.0245
4.318,-0.0235
4.32,-0.0305
4.322,-0.037
4.324,-0.046
4.326,-0.047
4.328,-0.049
4.33,-0.0415
4.332,-0.037
4.334,-0.029
4.336,-0.03
4.338,-0.026
4.34,-0.03
4.342,-0.0375
4.344,-0.047
4.346,-0.047
4.348,-0.0555
4.35,-0.045
4.352,-0.0405
4.354,-0.036
4.356,-0.0295
4.358,-0.025
4.36,-0.0385
4.362,-0.0445
4.364,-0.0495
4.366,-0.0515
4.368,-0.0535
4.37,-0.0475
4.372,-0.0425
4.374,-0.0325
4.376,-0.0335
4.378,-0.0275
4.38,-0.0385
4.382,-0.0415
4.384,-0.048
4.386,-0.0495
4.388,-0.052
4.39,-0.044
4.392,-0.0405
4.394,-0.035
4.396,-0.03
4.398,-0.0235
4.4,-0.0345
4.402,-0.0395
4.404,-0.0475
4.406,-0.0555
4.408,-0.056
4.41,-0.034
4.412,-0.017
4.414,-0.006
4.416,-0.0025
4.418,0.006
4.42,-0.004
4.422,-0.0065
4.424,-0.0245
4.426,-0.045
4.428,-0.08
4.43,-0.0695
4.432,-0.0565
4.434,-0.036
4.436,-0.0465
4.438,-0.067
4.44,-0.081
4.442,-0.1005
4.444,-0.098
4.446,-0.1105
4.448,-0.124
4.45,-0.135
4.452,-0.1385
4.454,-0.153
4.456,-0.1525
4.458,-0.148
4.46,-0.1485
4.462,-0.1525
4.464,-0.1545
4.466,-0.162
4.468,-0.1635
4.47,-0.149
4.472,-0.143
4.474,-0.1315
4.476,-0.121
4.478,-0.099
4.48,-0.0865
4.482,-0.078
4.484,-0.078
4.486,-0.066
4.488,-0.066
4.49,-0.058
4.492,-0.052
4.494,-0.041
4.496,-0.037
4.498,-0.029
4.5,-0.0325
4.502,-0.0395
4.504,-0.0405
4.506,-0.0465
4.508,-0.053
4.51,-0.044
4.512,-0.0355
4.514,-0.0275
4.516,-0.0245
4.518,-0.012
4.52,-0.0195
4.522,-0.0115
4.524,-0.001
4.526,0.0215
4.528,0.0555
4.53,0.104
4.532,0.158
4.534,0.208
4.536,0.245
4.538,0.2625
4.54,0.242
4.542,0.2155
4.544,0.1375
4.546,0.0805
4.548,0.021
4.55,0.0015
4.552,-0.037
4.554,-0.088
4.556,-0.199
4.558,-0.225
4.56,-0.2915
4.562,-0.33
4.564,-0.378
4.566,-0.3895
4.568,-0.352
4.57,-0.3075
4.572,-0.24
4.574,-0.1485
4.576,-0.0695
4.578,-0.009
4.58,0.106
4.582,0.1885
4.584,0.258
4.586,0.327
4.588,0.3505
4.59,0.2895
4.592,0.194
4.594,0.184
4.596,0.1495
4.598,0.1735
4.6,0.1805
4.602,0.1895
4.604,0.1835
4.606,0.181
4.608,0.1485
4.61,0.1195
4.612,0.1
4.614,0.0855
4.616,0.0735
4.618,0.0825
4.62,0.069
4.622,0.0615
4.624,0.0495
4.626,0.0445
4.628,0.0345
4.63,0.0365
4.632,0.044
4.634,0.05
4.636,0.05
4.638,0.054
4.64,0.045
4.642,0.037
4.644,0.028
4.646,0.023
4.648,0.0235
4.65,0.0295
4.652,0.0315
4.654,0.0395
4.656,0.041
4.658,0.044
4.66,0.0345
4.662,0.033
4.664,0.0245
4.666,0.0205
4.668,0.0155
4.67,0.0185
4.672,0.0225
4.674,0.029
4.676,0.034
4.678,0.0395
4.68,0.029
4.682,0.025
4.684,0.019
4.686,0.014
4.688,0.011
4.69,0.0145
4.692,0.025
4.694,0.0235
4.696,0.03
4.698,0.0315
4.7,0.027
4.702,0.0165
4.704,0.0155
4.706,0.012
4.708,0.008
4.71,0.0095
4.712,0.015
4.714,0.0175
4.716,0.026
4.718,0.0245
4.72,0.017
4.722,0.016
4.724,0.0095
4.726,0.006
4.728,0.001
4.73,0.008
4.732,0.014
4.734,0.0145
4.736,0.024
4.738,0.0215
4.74,0.0165
4.742,0.011
4.744,0.003
4.746,0.0035
4.748,-0.0075
4.75,-0.0055
4.752,-0.005
4.754,0.005
4.756,-0.0005
4.758,0.0115
4.76,0.0045
4.762,-0.0025
4.764,-0.0155
4.766,-0.016
4.768,-0.0225
4.77,-0.019
4.772,-0.015
4.774,-0.0075
4.776,-0.0055
4.778,-0.0045
4.78,-0.0115
4.782,-0.016
4.784,-0.0275
4.786,-0.035
4.788,-0.032
4.79,-0.026
4.792,-0.0255
4.794,-0.0265
4.796,-0.02
4.798,-0.0155
4.8,-0.021
4.802,-0.027
4.804,-0.0365
4.806,-0.039
4.808,-0.042
4.81,-0.034
4.812,-0.0305
4.814,-0.0285
4.816,-0.015
4.818,-0.011
4.82,-0.017
4.822,-0.0235
4.824,-0.025
4.826,-0.0315
4.828,-0.032
4.83,-0.0265
4.832,-0.021
4.834,-0.013
4.836,-0.009
4.838,-0.0075
4.84,-0.0125
4.842,-0.0135
4.844,-0.016
4.846,-0.0185
4.848,-0.025
4.85,-0.017
4.852,-0.0145
4.854,-0.007
4.856,0.001
4.858,-0.0025
4.86,-0.0085
4.862,-0.016
4.864,-0.0195
4.866,-0.0205
4.868,-0.028
4.87,-0.016
4.872,-0.016
4.874,-0.0115
4.876,-0.0065
4.878,0.004
4.88,-0.0125
4.882,-0.004
4.884,-0.017
4.886,-0.019
4.888,-0.0185
4.89,-0.014
4.892,-0.0115
4.894,-0.003
4.896,0.0005
4.898,0.008
4.9,0.0035
4.902,-0.0025
4.904,-0.0085
4.906,-0.0175
4.908,-0.015
4.91,-0.012
4.912,-0.009
4.914,-0.003
4.916,0.0025
4.918,0.0025
4.92,0.0035
4.922,-0.007
4.924,-0.011
4.926,-0.015
4.928,-0.0195
4.93,-0.0145
4.932,-0.008
4.934,-0.0045
4.936,0.0025
4.938,0.0075
4.94,-0.0065
4.942,-0.007
4.944,-0.0065
4.946,-0.0085
4.948,-0.0205
4.95,-0.01
4.952,-0.0035
4.954,0
4.956,0.0045
4.958,0.0045
4.96,-0.005
4.962,-0.003
4.964,-0.0125
4.966,-0.016
4.968,-0.0225
4.97,-0.0135
4.972,-0.0125
4.974,-0.006
4.976,-0.002
4.978,-0.001
4.98,-0.008
4.982,-0.0115
4.984,-0.0175
4.986,-0.0305
4.988,-0.0245
4.99,-0.023
4.992,-0.011
4.994,-0.0065
4.996,-0.005
4.998,-0.0045
5,-0.0045
5.002,-0.0115
5.004,-0.014
5.006,-0.025
5.008,-0.0255
5.01,-0.023
5.012,-0.0135
5.014,-0.0155
5.016,-0.0065
5.018,-0.008
5.02,-0.0135
5.022,-0.012
5.024,-0.019
5.026,-0.0225
5.028,-0.0235
5.03,-0.017
5.032,-0.0185
5.034,-0.007
5.036,-0.0095
5.038,-0.004
5.04,-0.0155
5.042,-0.006
5.044,-0.026
5.046,-0.026
5.048,-0.0295
5.05,-0.024
5.052,-0.0245
5.054,-0.0095
5.056,-0.007
5.058,-0.0035
5.06,-0.01
5.062,-0.0185
5.064,-0.0285
5.066,-0.0205
5.068,-0.032
5.07,-0.024
5.072,-0.0165
5.074,-0.0165
5.076,-0.0115
5.078,-0.012
5.08,-0.012
5.082,-0.024
5.084,-0.024
5.086,-0.0235
5.088,-0.034
5.09,-0.0305
5.092,-0.0155
5.094,-0.0085
5.096,-0.0065
5.098,-0.01
5.1,-0.0165
5.102,-0.0215
5.104,-0.011
5.106,-0.006
5.108,-0.009
5.11,0.005
5.112,0.0075
5.114,0.021
5.116,0.022
5.118,0.0205
5.12,-0.008
5.122,-0.0395
5.124,-0.0435
5.126,-0.04
5.128,-0.0325
5.13,-0.038
5.132,-0.055
5.134,-0.0605
5.136,-0.0755
5.138,-0.0605
5.14,-0.0705
5.142,-0.084
5.144,-0.1065
5.146,-0.1205
5.148,-0.1485
5.15,-0.1485
5.152,-0.132
5.154,-0.1235
5.156,-0.12
5.158,-0.1215
5.16,-0.1195
5.162,-0.12
5.164,-0.114
5.166,-0.1305
5.168,-0.1225
5.17,-0.1125
5.172,-0.0825
5.174,-0.0595
5.176,-0.038
5.178,-0.028
5.18,-0.019
5.182,-0.027
5.184,-0.036
5.186,-0.031
5.188,-0.033
5.19,-0.026
5.192,-0.016
5.194,-0.0115
5.196,-0.0125
5.198,0.0025
5.2,-0.0025
5.202,-0.0155
5.204,-0.013
5.206,-0.0155
5.208,-0.024
5.21,-0.013
5.212,0.008
5.214,0.0155
5.216,0.0315
5.218,0.06
5.22,0.074
5.222,0.1205
5.224,0.154
5.226,0.1915
5.228,0.2265
5.23,0.2525
5.232,0.27
5.234,0.254
5.236,0.2
5.238,0.144
5.24,0.0925
5.242,0.0305
5.244,0.0125
5.246,-0.0455
5.248,-0.137
5.25,-0.211
5.252,-0.219
5.254,-0.2975
5.256,-0.3395
5.258,-0.3635
5.26,-0.3265
5.262,-0.283
5.264,-0.2615
5.266,-0.177
5.268,-0.0945
5.27,-0.0415
5.272,0.0285
5.274,0.1515
5.276,0.2405
5.278,0.318
5.28,0.384
5.282,0.404
5.284,0.3275
5.286,0.2465
5.288,0.2215
5.29,0.188
5.292,0.212
5.294,0.234
5.296,0.242
5.298,0.2465
5.3,0.2425
5.302,0.207
5.304,0.159
5.306,0.128
5.308,0.1125
5.31,0.096
5.312,0.1015
5.314,0.1105
5.316,0.099
5.318,0.11
5.32,0.0955
5.322,0.0895
5.324,0.0755
5.326,0.081
5.328,0.069
5.33,0.066
5.332,0.081
5.334,0.0795
5.336,0.079
5.338,0.084
5.34,0.08
5.342,0.075
5.344,0.068
5.346,0.0685
5.348,0.0565
5.35,0.057
5.352,0.0625
5.354,0.0745
5.356,0.0735
5.358,0.0755
5.36,0.072
5.362,0.067
5.364,0.067
5.366,0.059
5.368,0.0525
5.37,0.0495
5.372,0.059
5.374,0.056
5.376,0.0665
5.378,0.0755
5.38,0.066
5.382,0.058
5.384,0.058
5.386,0.062
5.388,0.049
5.39,0.061
5.392,0.062
5.394,0.067
5.396,0.0705
5.398,0.079
5.4,0.0705
5.402,0.0595
5.404,0.0535
5.406,0.0475
5.408,0.042
5.41,0.0475
5.412,0.0595
5.414,0.0585
5.416,0.0695
5.418,0.0725
5.42,0.0685
5.422,0.056
5.424,0.0605
5.426,0.051
5.428,0.0475
5.43,0.042
5.432,0.049
5.434,0.0515
5.436,0.057
5.438,0.0625
5.44,0.0595
5.442,0.0575
5.444,0.042
5.446,0.0415
5.448,0.0365
5.45,0.0425
5.452,0.0445
5.454,0.049
5.456,0.0435
5.458,0.059
5.46,0.0475
5.462,0.04
5.464,0.0305
5.466,0.028
5.468,0.0225
5.47,0.0255
5.472,0.032
5.474,0.0345
5.476,0.037
5.478,0.044
5.48,0.0365
5.482,0.035
5.484,0.024
5.486,0.03
5.488,0.0235
5.49,0.022
5.492,0.026
5.494,0.035
5.496,0.0355
5.498,0.0415
5.5,0.0375
5.502,0.025
5.504,0.028
5.506,0.0235
5.508,0.0265
5.51,0.023
5.512,0.0375
5.514,0.0425
5.516,0.048
5.518,0.0565
5.52,0.0505
5.522,0.047
5.524,0.0355
5.526,0.047
5.528,0.0285
5.53,0.0445
5.532,0.049
5.534,0.052
5.536,0.057
5.538,0.065
5.54,0.0605
5.542,0.057
5.544,0.049
5.546,0.0395
5.548,0.041
5.55,0.045
5.552,0.0555
5.554,0.056
5.556,0.0635
5.558,0.067
5.56,0.066
5.562,0.0605
5.564,0.0585
5.566,0.0595
5.568,0.058
5.57,0.055
5.572,0.06
5.574,0.068
5.576,0.0715
5.578,0.0765
5.58,0.0755
5.582,0.08
5.584,0.0595
5.586,0.057
5.588,0.0565
5.59,0.056
5.592,0.0605
5.594,0.0735
5.596,0.075
5.598,0.079
5.6,0.0785
5.602,0.0715
5.604,0.071
5.606,0.0555
5.608,0.061
5.61,0.0655
5.612,0.071
5.614,0.0705
5.616,0.081
5.618,0.085
5.62,0.08
5.622,0.073
5.624,0.0655
5.626,0.056
5.628,0.062
5.63,0.066
5.632,0.065
5.634,0.077
5.636,0.083
5.638,0.078
5.64,0.074
5.642,0.072
5.644,0.073
5.646,0.0585
5.648,0.0605
5.65,0.0615
5.652,0.063
5.654,0.0695
5.656,0.0785
5.658,0.0865
5.66,0.08
5.662,0.073
5.664,0.066
5.666,0.063
5.668,0.0555
5.67,0.059
5.672,0.0685
5.674,0.072
5.676,0.075
5.678,0.081
5.68,0.074
5.682,0.0715
5.684,0.0695
5.686,0.066
5.688,0.0605
5.69,0.061
5.692,0.0655
5.694,0.0635
5.696,0.0745
5.698,0.0815
5.7,0.077
5.702,0.0655
5.704,0.0645
5.706,0.0605
5.708,0.064
5.71,0.0615
5.712,0.067
5.714,0.066
5.716,0.0705
5.718,0.0845
5.72,0.081
5.722,0.076
5.724,0.068
5.726,0.0625
5.728,0.0595
5.73,0.0615
5.732,0.062
5.734,0.0735
5.736,0.0795
5.738,0.088
5.74,0.0855
5.742,0.0725
5.744,0.063
5.746,0.061
5.748,0.0655
5.75,0.0565
5.752,0.069
5.754,0.069
5.756,0.0735
5.758,0.084
5.76,0.0825
5.762,0.0755
5.764,0.07
5.766,0.0665
5.768,0.0675
5.77,0.056
5.772,0.065
5.774,0.067
5.776,0.0825
5.778,0.0995
5.78,0.1115
5.782,0.1005
5.784,0.098
5.786,0.0995
5.788,0.0985
5.79,0.097
5.792,0.0885
5.794,0.073
5.796,0.0515
5.798,0.061
5.8,0.0645
5.802,0.064
5.804,0.06
5.806,0.033
5.808,0.025
5.81,0.006
5.812,0.023
5.814,0.0325
5.816,0.015
5.818,0.0015
5.82,-0.0085
5.822,-0.0345
5.824,-0.0435
5.826,-0.049
5.828,-0.051
5.83,-0.0495
5.832,-0.048
5.834,-0.03
5.836,-0.0195
5.838,-0.012
5.84,-0.009
5.842,-0.0115
5.844,-0.01
5.846,0.005
5.848,0.019
5.85,0.0435
5.852,0.054
5.854,0.0735
5.856,0.0725
5.858,0.0775
5.86,0.088
5.862,0.079
5.864,0.077
5.866,0.0725
5.868,0.0735
5.87,0.0755
5.872,0.0815
5.874,0.0805
5.876,0.101
5.878,0.091
5.88,0.0945
5.882,0.0915
5.884,0.089
5.886,0.086
5.888,0.096
5.89,0.108
5.892,0.1355
5.894,0.1755
5.896,0.222
5.898,0.276
5.9,0.3155
5.902,0.343
5.904,0.364
5.906,0.3695
5.908,0.339
5.91,0.2835
5.912,0.226
5.914,0.183
5.916,0.1325
5.918,0.11
5.92,0.0545
5.922,-0.0485
5.924,-0.1195
5.926,-0.146
5.928,-0.2365
5.93,-0.262
5.932,-0.287
5.934,-0.2405
5.936,-0.171
5.938,-0.1425
5.94,-0.051
5.942,0.011
5.944,0.052
5.946,0.116
5.948,0.238
5.95,0.3205
5.952,0.403
5.954,0.473
5.956,0.505
5.958,0.447
5.96,0.37
5.962,0.347
5.964,0.314
5.966,0.319
5.968,0.328
5.97,0.327
5.972,0.3395
5.974,0.343
5.976,0.3175
5.978,0.2725
5.98,0.242
5.982,0.2245
5.984,0.198
5.986,0.1965
5.988,0.1895
5.99,0.179
5.992,0.185
5.994,0.1895
5.996,0.1895
5.998,0.186
6,0.1795
6.002,0.18
6.004,0.1635
6.006,0.1645
6.008,0.1575
6.01,0.157
6.012,0.1575
6.014,0.164
6.016,0.171
6.018,0.166
6.02,0.174
6.022,0.162
6.024,0.1605
6.026,0.148
6.028,0.142
6.03,0.139
6.032,0.1455
6.034,0.153
6.036,0.1565
6.038,0.157
6.04,0.163
6.042,0.154
6.044,0.151
6.046,0.149
6.048,0.1385
6.05,0.142
6.052,0.1495
6.054,0.149
6.056,0.1525
6.058,0.1595
6.06,0.1585
6.062,0.149
6.064,0.1445
6.066,0.138
6.068,0.136
6.07,0.1355
6.072,0.137
6.074,0.1495
6.076,0.146
6.078,0.157
6.08,0.1545
6.082,0.148
6.084,0.1395
6.086,0.14
6.088,0.1305
6.09,0.1225
6.092,0.138
6.094,0.1455
6.096,0.1415
6.098,0.1525
6.1,0.1525
6.102,0.1415
6.104,0.138
6.106,0.1305
6.108,0.1295
6.11,0.124
6.112,0.134
6.114,0.136
6.116,0.134
6.118,0.1455
6.12,0.1405
6.122,0.1335
6.124,0.132
6.126,0.121
6.128,0.1215
6.13,0.115
6.132,0.1205
6.134,0.1225
6.136,0.1285
6.138,0.1325
6.14,0.1285
6.142,0.122
6.144,0.114
6.146,0.1075
6.148,0.1065
6.15,0.1025
6.152,0.1145
6.154,0.113
6.156,0.1215
6.158,0.123
6.16,0.1215
6.162,0.111
6.164,0.1095
6.166,0.1055
6.168,0.099
6.17,0.103
6.172,0.1075
6.174,0.1175
6.176,0.112
6.178,0.1205
6.18,0.1195
6.182,0.115
6.184,0.105
6.186,0.1065
6.188,0.107
6.19,0.1055
6.192,0.1105
6.194,0.1185
6.196,0.1245
6.198,0.1265
6.2,0.134
6.202,0.122
6.204,0.1205
6.206,0.116
6.208,0.11
6.21,0.114
6.212,0.117
6.214,0.1275
6.216,0.1285
6.218,0.129
6.22,0.1345
6.222,0.127
6.224,0.1215
6.226,0.1215
6.228,0.1135
6.23,0.111
6.232,0.116
6.234,0.125
6.236,0.125
6.238,0.1345
6.24,0.1335
6.242,0.1235
6.244,0.121
6.246,0.1205
6.248,0.1135
6.25,0.109
6.252,0.124
6.254,0.127
6.256,0.1305
6.258,0.1365
6.26,0.134
6.262,0.127
6.264,0.121
6.266,0.1225
6.268,0.1095
6.27,0.115
6.272,0.117
6.274,0.125
6.276,0.131
6.278,0.131
6.28,0.131
6.282,0.1295
6.284,0.1245
6.286,0.1185
6.288,0.108
6.29,0.113
6.292,0.1205
6.294,0.1225
6.296,0.1275
6.298,0.1335
6.3,0.1325
6.302,0.123
6.304,0.12
6.306,0.109
6.308,0.1065
6.31,0.106
6.312,0.111
6.314,0.1175
6.316,0.124
6.318,0.1325
6.32,0.1305
6.322,0.119
6.324,0.116
6.326,0.1075
6.328,0.106
6.33,0.108
6.332,0.108
6.334,0.109
6.336,0.1195
6.338,0.1215
6.34,0.1255
6.342,0.1195
6.344,0.1095
6.346,0.1055
6.348,0.103
6.35,0.1045
6.352,0.107
6.354,0.108
6.356,0.1145
6.358,0.1175
6.36,0.1195
6.362,0.117
6.364,0.1115
6.366,0.098
6.368,0.0995
6.37,0.0945
6.372,0.096
6.374,0.1095
6.376,0.116
6.378,0.1205
6.38,0.1175
6.382,0.111
6.384,0.1065
6.386,0.102
6.388,0.1005
6.39,0.0955
6.392,0.105
6.394,0.104
6.396,0.109
6.398,0.1185
6.4,0.1145
6.402,0.109
6.404,0.102
6.406,0.1035
6.408,0.0965
6.41,0.093
6.412,0.097
6.414,0.109
6.416,0.1155
6.418,0.1165
6.42,0.114
6.422,0.113
6.424,0.1045
6.426,0.098
6.428,0.0955
6.43,0.0945
6.432,0.1035
6.434,0.11
6.436,0.1055
6.438,0.1075
6.44,0.113
6.442,0.12
6.444,0.1215
6.446,0.123
6.448,0.1225
6.45,0.1215
6.452,0.1335
6.454,0.1385
6.456,0.1395
6.458,0.1255
6.46,0.1035
6.462,0.073
6.464,0.0775
6.466,0.0795
6.468,0.0865
6.47,0.059
6.472,0.0575
6.474,0.054
6.476,0.0425
6.478,0.0575
6.48,0.0505
6.482,0.0265
6.484,0.015
6.486,-0.0075
6.488,-0.0305
6.49,-0.0305
6.492,-0.018
6.494,-0.0085
6.496,-0.002
6.498,0
6.5,0.0095
6.502,0.0035
6.504,0.002
6.506,-0.002
6.508,0.001
6.51,0.0115
6.512,0.0395
6.514,0.053
6.516,0.0745
6.518,0.091
6.52,0.1035
6.522,0.097
6.524,0.0905
6.526,0.0895
6.528,0.0835
6.53,0.089
6.532,0.098
6.534,0.103
6.536,0.1055
6.538,0.1045
6.54,0.1115
6.542,0.1065
6.544,0.1065
6.546,0.1005
6.548,0.097
6.55,0.0965
6.552,0.1135
6.554,0.124
6.556,0.1475
6.558,0.1755
6.56,0.212
6.562,0.2455
6.564,0.284
6.566,0.3265
6.568,0.3575
6.57,0.378
6.572,0.385
6.574,0.371
6.576,0.32
6.578,0.261
6.58,0.207
6.582,0.158
6.584,0.1245
6.586,0.069
6.588,-0.043
6.59,-0.112
6.592,-0.1445
6.594,-0.1945
6.596,-0.2205
6.598,-0.252
6.6,-0.203
6.602,-0.175
6.604,-0.1375
6.606,-0.062
6.608,0.018
6.61,0.073
6.612,0.1715
6.614,0.289
6.616,0.374
6.618,0.459
6.62,0.505
6.622,0.486
6.624,0.359
6.626,0.328
6.628,0.2875
6.63,0.292
6.632,0.317
6.634,0.3335
6.636,0.3475
6.638,0.352
6.64,0.339
6.642,0.287
6.644,0.2485
6.646,0.226
6.648,0.202
6.65,0.1965
6.652,0.2055
6.654,0.201
6.656,0.2075
6.658,0.204
6.66,0.207
6.662,0.199
6.664,0.192
6.666,0.18
6.668,0.1795
6.67,0.1735
6.672,0.17
6.674,0.1845
6.676,0.189
6.678,0.189
6.68,0.187
6.682,0.1785
6.684,0.1745
6.686,0.166
6.688,0.167
6.69,0.1595
6.692,0.164
6.694,0.1705
6.696,0.1745
6.698,0.174
6.7,0.18
6.702,0.1715
6.704,0.169
6.706,0.1615
6.708,0.1575
6.71,0.1585
6.712,0.16
6.714,0.17
6.716,0.173
6.718,0.1725
6.72,0.183
6.722,0.17
6.724,0.1715
6.726,0.1615
6.728,0.159
6.73,0.156
6.732,0.161
6.734,0.1655
6.736,0.17
6.738,0.171
6.74,0.176
6.742,0.1685
6.744,0.165
6.746,0.159
6.748,0.156
6.75,0.1505
6.752,0.1575
6.754,0.1625
6.756,0.1705
6.758,0.172
6.76,0.173
6.762,0.165
6.764,0.162
6.766,0.154
6.768,0.149
6.77,0.1415
6.772,0.1525
6.774,0.1525
6.776,0.162
6.778,0.166
6.78,0.168
6.782,0.1595
6.784,0.152
6.786,0.1465
6.788,0.141
6.79,0.1365
6.792,0.1465
6.794,0.147
6.796,0.151
6.798,0.151
6.8,0.157
6.802,0.147
6.804,0.1445
6.806,0.134
6.808,0.127
6.81,0.1255
6.812,0.1325
6.814,0.1345
6.816,0.14
6.818,0.1405
6.82,0.145
6.822,0.137
6.824,0.13
6.826,0.1225
6.828,0.118
6.83,0.112
6.832,0.1195
6.834,0.122
6.836,0.132
6.838,0.132
6.84,0.141
6.842,0.131
6.844,0.128
6.846,0.1265
6.848,0.1175
6.85,0.114
6.852,0.1195
6.854,0.1315
6.856,0.1375
6.858,0.141
6.86,0.1415
6.862,0.1345
6.864,0.1335
6.866,0.1265
6.868,0.1245
6.87,0.122
6.872,0.1255
6.874,0.133
6.876,0.139
6.878,0.144
6.88,0.144
6.882,0.1365
6.884,0.139
6.886,0.1275
6.888,0.1315
6.89,0.1235
6.892,0.131
6.894,0.133
6.896,0.1415
6.898,0.142
6.9,0.149
6.902,0.1415
6.904,0.1365
6.906,0.1345
6.908,0.129
6.91,0.1225
6.912,0.133
6.914,0.1345
6.916,0.144
6.918,0.142
6.92,0.15
6.922,0.139
6.924,0.1355
6.926,0.1275
6.928,0.137
6.93,0.1275
6.932,0.138
6.934,0.139
6.936,0.148
6.938,0.1505
6.94,0.152
6.942,0.143
6.944,0.142
6.946,0.1335
6.948,0.1265
6.95,0.129
6.952,0.132
6.954,0.1375
6.956,0.147
6.958,0.1515
6.96,0.152
6.962,0.143
6.964,0.139
6.966,0.1325
6.968,0.13
6.97,0.124
6.972,0.1325
6.974,0.133
6.976,0.141
6.978,0.1475
6.98,0.1465
6.982,0.143
6.984,0.134
6.986,0.13
6.988,0.127
6.99,0.1235
6.992,0.131
6.994,0.131
6.996,0.136
6.998,0.1385
7,0.1405
7.002,0.137
7.004,0.1315
7.006,0.1275
7.008,0.119
7.01,0.12
7.012,0.1245
7.014,0.1245
7.016,0.137
7.018,0.1395
7.02,0.1405
7.022,0.1295
7.024,0.1295
7.026,0.1255
7.028,0.118
7.03,0.1125
7.032,0.1265
7.034,0.1265
7.036,0.129
7.038,0.1325
7.04,0.137
7.042,0.1305
7.044,0.1275
7.046,0.122
7.048,0.1185
7.05,0.1115
7.052,0.117
7.054,0.1225
7.056,0.129
7.058,0.128
7.06,0.1345
7.062,0.129
7.064,0.1215
7.066,0.113
7.068,0.114
7.07,0.108
7.072,0.1125
7.074,0.1175
7.076,0.1235
7.078,0.125
7.08,0.1305
7.082,0.1225
7.084,0.1175
7.086,0.1165
7.088,0.11
7.09,0.107
7.092,0.1115
7.094,0.1115
7.096,0.1205
7.098,0.1275
7.1,0.1265
7.102,0.1235
7.104,0.118
7.106,0.109
7.108,0.1105
7.11,0.103
7.112,0.1095
7.114,0.1205
7.116,0.125
7.118,0.1305
7.12,0.127
7.122,0.116
7.124,0.115
7.126,0.1105
7.128,0.1255
7.13,0.131
7.132,0.1405
7.134,0.141
7.136,0.154
7.138,0.155
7.14,0.155
7.142,0.1355
7.144,0.1035
7.146,0.0775
7.148,0.082
7.15,0.0955
7.152,0.1025
7.154,0.0895
7.156,0.0835
7.158,0.0755
7.16,0.06
7.162,0.0685
7.164,0.057
7.166,0.0305
7.168,0.0155
7.17,-0.0035
7.172,-0.0105
7.174,-0.01
7.176,0.0125
7.178,0.012
7.18,0.018
7.182,0.01
7.184,0.0085
7.186,0.003
7.188,0
7.19,0.002
7.192,0.0135
7.194,0.031
7.196,0.0595
7.198,0.077
7.2,0.0925
7.202,0.0975
7.204,0.103
7.206,0.094
7.208,0.096
7.21,0.0935
7.212,0.1035
7.214,0.11
7.216,0.12
7.218,0.124
7.22,0.1295
7.222,0.1205
7.224,0.1155
7.226,0.106
7.228,0.107
7.23,0.103
7.232,0.1105
7.234,0.1185
7.236,0.131
7.238,0.1385
7.24,0.1625
7.242,0.183
7.244,0.21
7.246,0.24
7.248,0.2855
7.25,0.325
7.252,0.366
7.254,0.3965
7.256,0.4045
7.258,0.3905
7.26,0.3365
7.262,0.268
7.264,0.206
7.266,0.154
7.268,0.1315
7.27,0.0755
7.272,-0.021
7.274,-0.0845
7.276,-0.1115
7.278,-0.1645
7.28,-0.2025
7.282,-0.2355
7.284,-0.194
7.286,-0.169
7.288,-0.127
7.29,-0.053
7.292,0.0365
7.294,0.0985
7.296,0.2005
7.298,0.315
7.3,0.395
7.302,0.4655
7.304,0.5055
7.306,0.4865
7.308,0.357
7.31,0.327
7.312,0.2935
7.314,0.3015
7.316,0.326
7.318,0.3385
7.32,0.35
7.322,0.3475
7.324,0.3285
7.326,0.2855
7.328,0.2505
7.33,0.233
7.332,0.212
7.334,0.212
7.336,0.2205
7.338,0.2235
7.34,0.223
7.342,0.2135
7.344,0.208
7.346,0.2035
7.348,0.1915
7.35,0.183
7.352,0.189
7.354,0.1905
7.356,0.197
7.358,0.199
7.36,0.203
7.362,0.1965
7.364,0.1935
7.366,0.1835
7.368,0.175
7.37,0.174
7.372,0.177
7.374,0.1815
7.376,0.1915
7.378,0.191
7.38,0.1965
7.382,0.187
7.384,0.1815
7.386,0.17
7.388,0.1735
7.39,0.1685
7.392,0.172
7.394,0.178
7.396,0.187
7.398,0.185
7.4,0.185
7.402,0.179
7.404,0.175
7.406,0.1675
7.408,0.1675
7.41,0.166
7.412,0.1695
7.414,0.1715
7.416,0.177
7.418,0.186
7.42,0.1835
7.422,0.1825
7.424,0.175
7.426,0.1635
7.428,0.167
7.43,0.157
7.432,0.163
7.434,0.1735
7.436,0.1745
7.438,0.178
7.44,0.1805
7.442,0.1755
7.444,0.17
7.446,0.163
7.448,0.159
7.45,0.158
7.452,0.162
7.454,0.1665
7.456,0.167
7.458,0.175
7.46,0.174
7.462,0.1645
7.464,0.164
7.466,0.1545
7.468,0.149
7.47,0.1395
7.472,0.151
7.474,0.1535
7.476,0.161
7.478,0.153
7.48,0.1675
7.482,0.1595
7.484,0.148
7.486,0.1405
7.488,0.138
7.49,0.126
7.492,0.1365
7.494,0.1375
7.496,0.147
7.498,0.1435
7.5,0.148
7.502,0.1415
7.504,0.136
7.506,0.131
7.508,0.128
7.51,0.12
7.512,0.122
7.514,0.127
7.516,0.14
7.518,0.14
7.52,0.144
7.522,0.135
7.524,0.1335
7.526,0.126
7.528,0.122
7.53,0.1215
7.532,0.1255
7.534,0.127
7.536,0.1375
7.538,0.1405
7.54,0.149
7.542,0.1455
7.544,0.1425
7.546,0.129
7.548,0.131
7.55,0.123
7.552,0.1405
7.554,0.146
7.556,0.1475
7.558,0.1565
7.56,0.158
7.562,0.157
7.564,0.1505
7.566,0.146
7.568,0.1405
7.57,0.136
7.572,0.141
7.574,0.1475
7.576,0.1555
7.578,0.1605
7.58,0.1625
7.582,0.159
7.584,0.1495
7.586,0.142
7.588,0.1415
7.59,0.138
7.592,0.1425
7.594,0.143
7.596,0.1535
7.598,0.152
7.6,0.1605
7.602,0.157
7.604,0.1515
7.606,0.146
7.608,0.1445
7.61,0.139
7.612,0.1385
7.614,0.15
7.616,0.148
7.618,0.163
7.62,0.155
7.622,0.153
7.624,0.1525
7.626,0.1455
7.628,0.1395
7.63,0.1325
7.632,0.141
7.634,0.147
7.636,0.15
7.638,0.1575
7.64,0.1625
7.642,0.153
7.644,0.146
7.646,0.1465
7.648,0.138
7.65,0.133
7.652,0.1375
7.654,0.1425
7.656,0.1565
7.658,0.152
7.66,0.1585
7.662,0.1515
7.664,0.1445
7.666,0.1415
7.668,0.138
7.67,0.1305
7.672,0.1335
7.674,0.1395
7.676,0.15
7.678,0.1515
7.68,0.158
7.682,0.1495
7.684,0.143
7.686,0.1365
7.688,0.136
7.69,0.131
7.692,0.1325
7.694,0.142
7.696,0.1495
7.698,0.151
7.7,0.151
7.702,0.146
7.704,0.1395
7.706,0.133
7.708,0.126
7.71,0.1235
7.712,0.1285
7.714,0.1355
7.716,0.142
7.718,0.139
7.72,0.1485
7.722,0.144
7.724,0.141
7.726,0.133
7.728,0.131
7.73,0.121
7.732,0.12
7.734,0.135
7.736,0.1405
7.738,0.1465
7.74,0.1455
7.742,0.1335
7.744,0.143
7.746,0.132
7.748,0.129
7.75,0.124
7.752,0.125
7.754,0.1345
7.756,0.1395
7.758,0.1445
7.76,0.151
7.762,0.1385
7.764,0.135
7.766,0.1285
7.768,0.1185
7.77,0.124
7.772,0.124
7.774,0.1305
7.776,0.1385
7.778,0.139
7.78,0.148
7.782,0.136
7.784,0.1335
7.786,0.126
7.788,0.1225
7.79,0.117
7.792,0.1245
7.794,0.131
7.796,0.1355
7.798,0.139
7.8,0.1425
7.802,0.1385
7.804,0.1365
7.806,0.132
7.808,0.1225
7.81,0.121
7.812,0.1215
7.814,0.1215
7.816,0.1355
7.818,0.149
7.82,0.1695
7.822,0.165
7.824,0.157
7.826,0.153
7.828,0.158
7.83,0.1495
7.832,0.149
7.834,0.1405
7.836,0.1145
7.838,0.114
7.84,0.1205
7.842,0.131
7.844,0.1205
7.846,0.0985
7.848,0.087
7.85,0.0625
7.852,0.067
7.854,0.0715
7.856,0.0595
7.858,0.064
7.86,0.0585
7.862,0.0295
7.864,0.0155
7.866,0.012
7.868,0.0075
7.87,0.0065
7.872,0.015
7.874,0.0145
7.876,0.033
7.878,0.037
7.88,0.0465
7.882,0.038
7.884,0.043
7.886,0.051
7.888,0.0655
7.89,0.0875
7.892,0.0955
7.894,0.1175
7.896,0.117
7.898,0.1275
7.9,0.128
7.902,0.135
7.904,0.1325
7.906,0.1275
7.908,0.123
7.91,0.1235
7.912,0.1235
7.914,0.1235
7.916,0.1365
7.918,0.145
7.92,0.1505
7.922,0.1485
7.924,0.1375
7.926,0.139
7.928,0.145
7.93,0.1525
7.932,0.1725
7.934,0.211
7.936,0.25
7.938,0.2845
7.94,0.3375
7.942,0.3725
7.944,0.4045
7.946,0.4145
7.948,0.3975
7.95,0.3595
7.952,0.303
7.954,0.246
7.956,0.1975
7.958,0.1775
7.96,0.131
7.962,0.0825
7.964,-0.031
7.966,-0.066
7.968,-0.1505
7.97,-0.191
7.972,-0.2225
7.974,-0.2165
7.976,-0.1615
7.978,-0.1175
7.98,-0.056
7.982,0.0405
7.984,0.0755
7.986,0.136
7.988,0.2385
7.99,0.33
7.992,0.4145
7.994,0.498
7.996,0.5355
7.998,0.5275
8,0.411
8.002,0.388
8.004,0.3345
8.006,0.336
8.008,0.3475
8.01,0.35
8.012,0.3575
8.014,0.3645
8.016,0.3515
8.018,0.324
8.02,0.2965
8.022,0.274
8.024,0.246
8.026,0.2325
8.028,0.2225
8.03,0.2185
8.032,0.2245
8.034,0.2255
8.036,0.2265
8.038,0.23
8.04,0.234
8.042,0.214
8.044,0.21
8.046,0.208
8.048,0.1925
8.05,0.199
8.052,0.196
8.054,0.206
8.056,0.2035
8.058,0.2085
8.06,0.2115
8.062,0.2095
8.064,0.206
8.066,0.1975
8.068,0.1965
8.07,0.191
8.072,0.196
8.074,0.1955
8.076,0.2035
8.078,0.2045
8.08,0.215
8.082,0.1975
8.084,0.202
8.086,0.1885
8.088,0.186
8.09,0.174
8.092,0.1795
8.094,0.195
8.096,0.198
8.098,0.194
8.1,0.201
8.102,0.197
8.104,0.191
8.106,0.1835
8.108,0.1755
8.11,0.1785
8.112,0.1825
8.114,0.1875
8.116,0.187
8.118,0.1995
8.12,0.201
8.122,0.191
8.124,0.1875
8.126,0.1825
8.128,0.177
8.13,0.1755
8.132,0.1735
8.134,0.186
8.136,0.184
8.138,0.189
8.14,0.1925
8.142,0.1935
8.144,0.188
8.146,0.1775
8.148,0.174
8.15,0.1665
8.152,0.1725
8.154,0.178
8.156,0.1845
8.158,0.1815
8.16,0.188
8.162,0.173
8.164,0.1715
8.166,0.167
8.168,0.159
8.17,0.15
8.172,0.1565
8.174,0.1525
8.176,0.165
8.178,0.164
8.18,0.166
8.182,0.1575
8.184,0.1585
8.186,0.147
8.188,0.1465
8.19,0.1405
8.192,0.143
8.194,0.1485
8.196,0.1565
8.198,0.1585
8.2,0.155
8.202,0.1535
8.204,0.1535
8.206,0.14
8.208,0.136
8.21,0.136
8.212,0.14
8.214,0.1445
8.216,0.146
8.218,0.1505
8.22,0.159
8.222,0.156
8.224,0.152
8.226,0.145
8.228,0.1385
8.23,0.1405
8.232,0.14
8.234,0.1475
8.236,0.161
8.238,0.165
8.24,0.171
8.242,0.1715
8.244,0.163
8.246,0.157
8.248,0.1435
8.25,0.1505
8.252,0.154
8.254,0.1625
8.256,0.1675
8.258,0.1775
8.26,0.1755
8.262,0.171
8.264,0.169
8.266,0.1605
8.268,0.1605
8.27,0.155
8.272,0.157
8.274,0.163
8.276,0.1685
8.278,0.174
8.28,0.1795
8.282,0.1765
8.284,0.172
8.286,0.165
8.288,0.1635
8.29,0.1555
8.292,0.159
8.294,0.1625
8.296,0.1685
8.298,0.1765
8.3,0.178
8.302,0.179
8.304,0.1705
8.306,0.169
8.308,0.166
8.31,0.1535
8.312,0.1625
8.314,0.167
8.316,0.178
8.318,0.1795
8.32,0.183
8.322,0.175
8.324,0.174
8.326,0.168
8.328,0.1585
8.33,0.1575
8.332,0.1625
8.334,0.167
8.336,0.171
8.338,0.18
8.34,0.177
8.342,0.17
8.344,0.163
8.346,0.1585
8.348,0.1555
8.35,0.157
8.352,0.154
8.354,0.1605
8.356,0.1625
8.358,0.1685
8.36,0.178
8.362,0.1655
8.364,0.1705
8.366,0.157
8.368,0.1555
8.37,0.151
8.372,0.1555
8.374,0.162
8.376,0.165
8.378,0.1665
8.38,0.1765
8.382,0.157
8.384,0.159
8.386,0.1575
8.388,0.1505
8.39,0.147
8.392,0.1485
8.394,0.1565
8.396,0.159
8.398,0.1585
8.4,0.169
8.402,0.1585
8.404,0.154
8.406,0.154
8.408,0.149
8.41,0.1425
8.412,0.1365
8.414,0.1535
8.416,0.1505
8.418,0.1575
8.42,0.156
8.422,0.1545
8.424,0.147
8.426,0.139
8.428,0.136
8.43,0.142
8.432,0.142
8.434,0.145
8.436,0.1575
8.438,0.166
8.44,0.16
8.442,0.155
8.444,0.1535
8.446,0.148
8.448,0.1405
8.45,0.1395
8.452,0.1375
8.454,0.1485
8.456,0.146
8.458,0.153
8.46,0.15
8.462,0.159
8.464,0.1475
8.466,0.1365
8.468,0.1325
8.47,0.129
8.472,0.134
8.474,0.1345
8.476,0.153
8.478,0.151
8.48,0.161
8.482,0.16
8.484,0.1455
8.486,0.146
8.488,0.134
8.49,0.1205
8.492,0.1305
8.494,0.1465
8.496,0.1575
8.498,0.178
8.5,0.188
8.502,0.18
8.504,0.184
8.506,0.172
8.508,0.1715
8.51,0.1435
8.512,0.1205
8.514,0.1115
8.516,0.1265
8.518,0.1385
8.52,0.144
8.522,0.1265
8.524,0.1025
8.526,0.0895
8.528,0.0775
8.53,0.079
8.532,0.066
8.534,0.0625
8.536,0.05
8.538,0.0395
8.54,0.031
8.542,0.0315
8.544,0.0265
8.546,0.0235
8.548,0.027
8.55,0.0155
8.552,0.023
8.554,0.0365
8.556,0.052
8.558,0.06
8.56,0.0605
8.562,0.073
8.564,0.09
8.566,0.105
8.568,0.1075
8.57,0.126
8.572,0.1185
8.574,0.13
8.576,0.1355
8.578,0.136
8.58,0.1475
8.582,0.1495
8.584,0.146
8.586,0.139
8.588,0.1385
8.59,0.1335
8.592,0.135
8.594,0.1495
8.596,0.153
8.598,0.156
8.6,0.162
8.602,0.1755
8.604,0.164
8.606,0.1675
8.608,0.1775
8.61,0.2035
8.612,0.246
8.614,0.2815
8.616,0.3325
8.618,0.3815
8.62,0.427
8.622,0.441
8.624,0.42
8.626,0.3885
8.628,0.31
8.63,0.254
8.632,0.198
8.634,0.182
8.636,0.1165
8.638,0.0675
8.64,-0.015
8.642,-0.0645
8.644,-0.1365
8.646,-0.204
8.648,-0.217
8.65,-0.218
8.652,-0.16
8.654,-0.105
8.656,-0.059
8.658,0.061
8.66,0.0875
8.662,0.16
8.664,0.247
8.666,0.356
8.668,0.4105
8.67,0.4855
8.672,0.5355
8.674,0.5425
8.676,0.4405
8.678,0.429
8.68,0.39
8.682,0.3775
8.684,0.3875
8.686,0.3865
8.688,0.3835
8.69,0.373
8.692,0.369
8.694,0.33
8.696,0.292
8.698,0.2755
8.7,0.268
8.702,0.248
8.704,0.247
8.706,0.236
8.708,0.23
8.71,0.2245
8.712,0.222
8.714,0.2245
8.716,0.2215
8.718,0.228
8.72,0.2385
8.722,0.2255
8.724,0.2195
8.726,0.213
8.728,0.205
8.73,0.1945
8.732,0.199
8.734,0.2035
8.736,0.2015
8.738,0.201
8.74,0.205
8.742,0.2025
8.744,0.1975
8.746,0.1915
8.748,0.1885
8.75,0.1855
8.752,0.187
8.754,0.1945
8.756,0.2
8.758,0.2005
8.76,0.21
8.762,0.2055
8.764,0.195
8.766,0.19
8.768,0.185
8.77,0.181
8.772,0.188
8.774,0.184
8.776,0.193
8.778,0.195
8.78,0.194
8.782,0.1985
8.784,0.1935
8.786,0.1875
8.788,0.181
8.79,0.18
8.792,0.1825
8.794,0.1855
8.796,0.1865
8.798,0.191
8.8,0.198
8.802,0.194
8.804,0.192
8.806,0.184
8.808,0.1765
8.81,0.17
8.812,0.179
8.814,0.1835
8.816,0.1855
8.818,0.1865
8.82,0.1955
8.822,0.1935
8.824,0.1835
8.826,0.1725
8.828,0.1695
8.83,0.1695
8.832,0.1655
8.834,0.1645
8.836,0.176
8.838,0.1805
8.84,0.1775
8.842,0.181
8.844,0.167
8.846,0.166
8.848,0.155
8.85,0.155
8.852,0.1555
8.854,0.161
8.856,0.1645
8.858,0.1665
8.86,0.1725
8.862,0.169
8.864,0.1575
8.866,0.1555
8.868,0.152
8.87,0.1455
8.872,0.15
8.874,0.1565
8.876,0.162
8.878,0.1625
8.88,0.171
8.882,0.1585
8.884,0.166
8.886,0.1505
8.888,0.1465
8.89,0.1485
8.892,0.143
8.894,0.156
8.896,0.16
8.898,0.1655
8.9,0.173
8.902,0.178
8.904,0.1655
8.906,0.16
8.908,0.1545
8.91,0.1535
8.912,0.156
8.914,0.154
8.916,0.1675
8.918,0.171
8.92,0.1785
8.922,0.172
8.924,0.1745
8.926,0.168
8.928,0.163
8.93,0.1675
8.932,0.163
8.934,0.1735
8.936,0.179
8.938,0.187
8.94,0.189
8.942,0.1895
8.944,0.183
8.946,0.1755
8.948,0.1705
8.95,0.1685
8.952,0.1695
8.954,0.1745
8.956,0.179
8.958,0.188
8.96,0.185
8.962,0.185
8.964,0.1815
8.966,0.1775
8.968,0.17
8.97,0.1675
8.972,0.174
8.974,0.1795
8.976,0.1765
8.978,0.1865
8.98,0.1905
8.982,0.1885
8.984,0.1885
8.986,0.1805
8.988,0.171
8.99,0.172
8.992,0.165
8.994,0.1765
8.996,0.1825
8.998,0.187
9,0.192
9.002,0.185
9.004,0.1785
9.006,0.172
9.008,0.1735
9.01,0.165
9.012,0.1735
9.014,0.175
9.016,0.1755
9.018,0.184
9.02,0.1855
9.022,0.182
9.024,0.175
9.026,0.175
9.028,0.1685
9.03,0.1585
9.032,0.165
9.034,0.1685
9.036,0.1725
9.038,0.182
9.04,0.1825
9.042,0.181
9.044,0.1715
9.046,0.169
9.048,0.1655
9.05,0.1585
9.052,0.167
9.054,0.169
9.056,0.173
9.058,0.18
9.06,0.1855
9.062,0.179
9.064,0.1715
9.066,0.1625
9.068,0.16
9.07,0.1615
9.072,0.1585
9.074,0.163
9.076,0.172
9.078,0.171
9.08,0.1775
9.082,0.1805
9.084,0.1725
9.086,0.165
9.088,0.166
9.09,0.159
9.092,0.1565
9.094,0.162
9.096,0.165
9.098,0.171
9.1,0.173
9.102,0.1655
9.104,0.17
9.106,0.1625
9.108,0.153
9.11,0.1565
9.112,0.159
9.114,0.1625
9.116,0.164
9.118,0.174
9.12,0.178
9.122,0.1775
9.124,0.1745
9.126,0.1645
9.128,0.1625
9.13,0.16
9.132,0.1565
9.134,0.169
9.136,0.1705
9.138,0.1775
9.14,0.175
9.142,0.171
9.144,0.166
9.146,0.166
9.148,0.1775
9.15,0.181
9.152,0.1845
9.154,0.192
9.156,0.207
9.158,0.207
9.16,0.2045
9.162,0.1945
9.164,0.162
9.166,0.1345
9.168,0.1375
9.17,0.1465
9.172,0.1495
9.174,0.1465
9.176,0.1315
9.178,0.1345
9.18,0.1145
9.182,0.129
9.184,0.111
9.186,0.0915
9.188,0.076
9.19,0.0535
9.192,0.0355
9.194,0.0425
9.196,0.056
9.198,0.064
9.2,0.0605
9.202,0.0695
9.204,0.0665
9.206,0.0605
9.208,0.0565
9.21,0.066
9.212,0.069
9.214,0.0855
9.216,0.1055
9.218,0.1345
9.22,0.15
9.222,0.159
9.224,0.164
9.226,0.1605
9.228,0.1525
9.23,0.153
9.232,0.1595
9.234,0.1695
9.236,0.174
9.238,0.178
9.24,0.19
9.242,0.188
9.244,0.1805
9.246,0.181
9.248,0.1755
9.25,0.1725
9.252,0.1775
9.254,0.1905
9.256,0.196
9.258,0.2105
9.26,0.225
9.262,0.2465
9.264,0.2695
9.266,0.304
9.268,0.342
9.27,0.38
9.272,0.422
9.274,0.4615
9.276,0.481
9.278,0.4695
9.28,0.43
9.282,0.3615
9.284,0.3035
9.286,0.246
9.288,0.223
9.29,0.166
9.292,0.086
9.294,0.006
9.296,-0.02
9.298,-0.092
9.3,-0.118
9.302,-0.153
9.304,-0.141
9.306,-0.0995
9.308,-0.0735
9.31,-0.003
9.312,0.0865
9.314,0.149
9.316,0.212
9.318,0.346
9.32,0.432
9.322,0.5125
9.324,0.5715
9.326,0.5995
9.328,0.5125
9.33,0.429
9.332,0.413
9.334,0.393
9.336,0.4205
9.338,0.437
9.34,0.435
9.342,0.4485
9.344,0.436
9.346,0.3985
9.348,0.3555
9.35,0.3175
9.352,0.3085
9.354,0.3005
9.356,0.302
9.358,0.3085
9.36,0.304
9.362,0.3015
9.364,0.293
9.366,0.282
9.368,0.2745
9.37,0.274
9.372,0.2695
9.374,0.275
9.376,0.275
9.378,0.279
9.38,0.2785
9.382,0.279
9.384,0.2725
9.386,0.2645
9.388,0.2595
9.39,0.2575
9.392,0.253
9.394,0.2585
9.396,0.2595
9.398,0.269
9.4,0.2645
9.402,0.269
9.404,0.261
9.406,0.257
9.408,0.25
9.41,0.249
9.412,0.249
9.414,0.2565
9.416,0.258
9.418,0.262
9.42,0.2685
9.422,0.274
9.424,0.2645
9.426,0.263
9.428,0.251
9.43,0.252
9.432,0.25
9.434,0.257
9.436,0.263
9.438,0.2685
9.44,0.272
9.442,0.271
9.444,0.269
9.446,0.259
9.448,0.254
9.45,0.2505
9.452,0.2495
9.454,0.2555
9.456,0.2615
9.458,0.263
9.46,0.266
9.462,0.2635
9.464,0.264
9.466,0.255
9.468,0.2475
9.47,0.249
9.472,0.2425
9.474,0.2465
9.476,0.259
9.478,0.2575
9.48,0.2645
9.482,0.261
9.484,0.254
9.486,0.2475
9.488,0.2425
9.49,0.2425
9.492,0.239
9.494,0.2425
9.496,0.2455
9.498,0.251
9.5,0.2555
9.502,0.254
9.504,0.245
9.506,0.2395
9.508,0.231
9.51,0.231
9.512,0.227
9.514,0.2295
9.516,0.232
9.518,0.238
9.52,0.2425
9.522,0.243
9.524,0.234
9.526,0.228
9.528,0.2245
9.53,0.2145
9.532,0.214
9.534,0.2235
9.536,0.226
9.538,0.232
9.54,0.2355
9.542,0.236
9.544,0.2285
9.546,0.224
9.548,0.217
9.55,0.219
9.552,0.2215
9.554,0.2245
9.556,0.2295
9.558,0.24
9.56,0.239
9.562,0.2415
9.564,0.234
9.566,0.234
9.568,0.2255
9.57,0.2335
9.572,0.2255
9.574,0.2335
9.576,0.24
9.578,0.248
9.58,0.2495
9.582,0.254
9.584,0.2445
9.586,0.2395
9.588,0.2365
9.59,0.23
9.592,0.2295
9.594,0.2365
9.596,0.2385
9.598,0.248
9.6,0.253
9.602,0.2475
9.604,0.249
9.606,0.2445
9.608,0.2335
9.61,0.2295
9.612,0.2315
9.614,0.2385
9.616,0.2435
9.618,0.2485
9.62,0.2525
9.622,0.2555
9.624,0.2425
9.626,0.238
9.628,0.235
9.63,0.2315
9.632,0.2335
9.634,0.237
9.636,0.245
9.638,0.2515
9.64,0.255
9.642,0.254
9.644,0.245
9.646,0.243
9.648,0.2375
9.65,0.2365
9.652,0.2345
9.654,0.241
9.656,0.246
9.658,0.248
9.66,0.2555
9.662,0.2565
9.664,0.244
9.666,0.2405
9.668,0.2385
9.67,0.232
9.672,0.2325
9.674,0.24
9.676,0.242
9.678,0.248
9.68,0.2515
9.682,0.251
9.684,0.2385
9.686,0.241
9.688,0.233
9.69,0.226
9.692,0.2275
9.694,0.237
9.696,0.244
9.698,0.245
9.7,0.2525
9.702,0.251
9.704,0.2435
9.706,0.237
9.708,0.235
9.71,0.227
9.712,0.2285
9.714,0.232
9.716,0.235
9.718,0.2385
9.72,0.2455
9.722,0.242
9.724,0.2405
9.726,0.235
9.728,0.228
9.73,0.226
9.732,0.219
9.734,0.238
9.736,0.237
9.738,0.243
9.74,0.2455
9.742,0.25
9.744,0.2405
9.746,0.234
9.748,0.2295
9.75,0.219
9.752,0.233
9.754,0.233
9.756,0.239
9.758,0.243
9.76,0.2445
9.762,0.2445
9.764,0.238
9.766,0.2275
9.768,0.225
9.77,0.223
9.772,0.2235
9.774,0.2295
9.776,0.236
9.778,0.2375
9.78,0.2435
9.782,0.2435
9.784,0.2375
9.786,0.234
9.788,0.2245
9.79,0.223
9.792,0.224
9.794,0.2245
9.796,0.2415
9.798,0.242
9.8,0.2495
9.802,0.24
9.804,0.231
9.806,0.2315
9.808,0.227
9.81,0.2485
9.812,0.256
9.814,0.2615
9.816,0.2675
9.818,0.274
9.82,0.2795
9.822,0.279
9.824,0.258
9.826,0.2305
9.828,0.192
9.83,0.2035
9.832,0.2115
9.834,0.2235
9.836,0.214
9.838,0.206
9.84,0.2005
9.842,0.1885
9.844,0.1885
9.846,0.1745
9.848,0.1515
9.85,0.1375
9.852,0.1215
9.854,0.115
9.856,0.118
9.858,0.1285
9.86,0.1385
9.862,0.1425
9.864,0.1305
9.866,0.132
9.868,0.1275
9.87,0.1265
9.872,0.1265
9.874,0.1395
9.876,0.155
9.878,0.1785
9.88,0.2035
9.882,0.215
9.884,0.2125
9.886,0.2255
9.888,0.221
9.89,0.2185
9.892,0.2155
9.894,0.228
9.896,0.233
9.898,0.2425
9.9,0.247
9.902,0.251
9.904,0.2415
9.906,0.2395
9.908,0.233
9.91,0.232
9.912,0.2315
9.914,0.245
9.916,0.2425
9.918,0.2625
9.92,0.2655
9.922,0.279
9.924,0.292
9.926,0.313
9.928,0.3495
9.93,0.391
9.932,0.4355
9.934,0.483
9.936,0.519
9.938,0.537
9.94,0.523
9.942,0.49
9.944,0.416
9.946,0.36
9.948,0.2955
9.95,0.2785
9.952,0.2225
9.954,0.166
9.956,0.0725
9.958,0.0425
9.96,-0.022
9.962,-0.053
9.964,-0.0975
9.966,-0.089
9.968,-0.0575
9.97,-0.0295
9.972,0.0445
9.974,0.136
9.976,0.208
9.978,0.279
9.98,0.413
9.982,0.495
9.984,0.566
9.986,0.6185
9.988,0.638
9.99,0.542
9.992,0.4615
9.994,0.445
9.996,0.423
9.998,0.452
10,0.4695
10.002,0.478
10.004,0.473
10.006,0.465
10.008,0.427
10.01,0.3865
10.012,0.3685
10.014,0.352
10.016,0.342
10.018,0.3535
10.02,0.355
10.022,0.3505
10.024,0.3385
10.026,0.3385
10.028,0.3225
10.03,0.3225
10.032,0.3155
10.034,0.3185
10.036,0.322
10.038,0.3245
10.04,0.3295
10.042,0.331
10.044,0.3205
10.046,0.3165
10.048,0.3095
10.05,0.302
10.052,0.299
10.054,0.309
10.056,0.315
10.058,0.3165
10.06,0.3155
10.062,0.323
10.064,0.3115
10.066,0.307
10.068,0.298
10.07,0.298
10.072,0.293
10.074,0.2985
10.076,0.307
10.078,0.307
10.08,0.3135
10.082,0.3115
10.084,0.3015
10.086,0.3
10.088,0.2975
10.09,0.2945
10.092,0.2935
10.094,0.297
10.096,0.303
10.098,0.309
10.1,0.312
10.102,0.3125
10.104,0.3055
10.106,0.3015
10.108,0.293
10.11,0.292
10.112,0.2915
10.114,0.2945
10.116,0.299
10.118,0.3065
10.12,0.3105
10.122,0.31
10.124,0.303
10.126,0.2985
10.128,0.2935
10.13,0.291
10.132,0.2845
10.134,0.294
10.136,0.292
10.138,0.3005
10.14,0.305
10.142,0.302
10.144,0.298
10.146,0.2875
10.148,0.283
10.15,0.279
10.152,0.2795
10.154,0.279
10.156,0.2875
10.158,0.288
10.16,0.291
10.162,0.295
10.164,0.2835
10.166,0.277
10.168,0.269
10.17,0.2655
10.172,0.2605
10.174,0.27
10.176,0.271
10.178,0.28
10.18,0.2765
10.182,0.28
10.184,0.264
10.186,0.266
10.188,0.258
10.19,0.2515
10.192,0.253
10.194,0.257
10.196,0.2605
10.198,0.269
10.2,0.2725
10.202,0.2735
10.204,0.2625
10.206,0.2575
10.208,0.2545
10.21,0.2425
10.212,0.2465
10.214,0.259
10.216,0.2615
10.218,0.27
10.22,0.2775
10.222,0.273
10.224,0.2675
10.226,0.2615
10.228,0.265
10.23,0.2565
10.232,0.256
10.234,0.2655
10.236,0.2715
10.238,0.2725
10.24,0.2835
10.242,0.287
10.244,0.275
10.246,0.275
10.248,0.2715
10.25,0.26
10.252,0.2595
10.254,0.271
10.256,0.273
10.258,0.2765
10.26,0.284
10.262,0.281
10.264,0.276
10.266,0.2725
10.268,0.268
10.27,0.262
10.272,0.2615
10.274,0.2685
10.276,0.271
10.278,0.2795
10.28,0.2815
10.282,0.2855
10.284,0.276
10.286,0.271
10.288,0.26
10.29,0.2585
10.292,0.2645
10.294,0.2665
10.296,0.2745
10.298,0.2735
10.3,0.2745
10.302,0.287
10.304,0.277
10.306,0.2725
10.308,0.267
10.31,0.261
10.312,0.2625
10.314,0.266
10.316,0.274
10.318,0.277
10.32,0.2855
10.322,0.2845
10.324,0.277
10.326,0.276
10.328,0.2695
10.33,0.2625
10.332,0.2645
10.334,0.269
10.336,0.273
10.338,0.2765
10.34,0.2755
10.342,0.2805
10.344,0.2715
10.346,0.266
10.348,0.265
10.35,0.261
10.352,0.259
10.354,0.269
10.356,0.2625
10.358,0.268
10.36,0.2765
10.362,0.279
10.364,0.265
10.366,0.265
10.368,0.255
10.37,0.257
10.372,0.2545
10.374,0.256
10.376,0.262
10.378,0.27
10.38,0.2695
10.382,0.2745
10.384,0.2655
10.386,0.2655
10.388,0.2525
10.39,0.2525
10.392,0.255
10.394,0.2595
10.396,0.264
10.398,0.27
10.4,0.2705
10.402,0.274
10.404,0.263
10.406,0.259
10.408,0.2525
10.41,0.2495
10.412,0.2465
10.414,0.252
10.416,0.258
10.418,0.262
10.42,0.269
10.422,0.266
10.424,0.2615
10.426,0.2545
10.428,0.2485
10.43,0.2435
10.432,0.243
10.434,0.248
10.436,0.2525
10.438,0.255
10.44,0.2645
10.442,0.2605
10.444,0.2565
10.446,0.253
10.448,0.247
10.45,0.2425
10.452,0.2395
10.454,0.2495
10.456,0.253
10.458,0.2615
10.46,0.264
10.462,0.272
10.464,0.2595
10.466,0.2625
10.468,0.245
10.47,0.246
10.472,0.2345
10.474,0.256
10.476,0.273
10.478,0.2885
10.48,0.285
10.482,0.2935
10.484,0.2975
10.486,0.2865
10.488,0.273
10.49,0.255
10.492,0.2185
10.494,0.213
10.496,0.234
10.498,0.2415
10.5,0.247
10.502,0.23
10.504,0.219
10.506,0.1985
10.508,0.1895
10.51,0.191
10.512,0.181
10.514,0.1735
10.516,0.165
10.518,0.143
10.52,0.139
10.522,0.1435
10.524,0.1405
10.526,0.1435
10.528,0.134
10.53,0.1365
10.532,0.1335
10.534,0.1495
10.536,0.154
10.538,0.1665
10.54,0.164
10.542,0.185
10.544,0.202
10.546,0.207
10.548,0.22
10.55,0.2245
10.552,0.227
10.554,0.23
10.556,0.2405
10.558,0.2465
10.56,0.25
10.562,0.2695
10.564,0.261
10.566,0.247
10.568,0.253
10.57,0.251
10.572,0.244
10.574,0.2485
10.576,0.26
10.578,0.2625
10.58,0.272
10.582,0.2775
10.584,0.265
10.586,0.279
10.588,0.2785
10.59,0.2975
10.592,0.3355
10.594,0.379
10.596,0.4225
10.598,0.478
10.6,0.514
10.602,0.5455
10.604,0.542
10.606,0.516
10.608,0.463
10.61,0.3925
10.612,0.338
10.614,0.293
10.616,0.275
10.618,0.232
10.62,0.1345
10.622,0.0785
10.624,0.042
10.626,-0.0395
10.628,-0.086
10.63,-0.1125
10.632,-0.0765
10.634,-0.024
10.636,0.0035
10.638,0.1065
10.64,0.186
10.642,0.2525
10.644,0.3075
10.646,0.4315
10.648,0.494
10.65,0.575
10.652,0.6335
10.654,0.6495
10.656,0.5645
10.658,0.503
10.66,0.477
10.662,0.4665
10.664,0.474
10.666,0.48
10.668,0.473
10.67,0.471
10.672,0.478
10.674,0.4405
10.676,0.408
10.678,0.395
10.68,0.3835
10.682,0.37
10.684,0.361
10.686,0.3575
10.688,0.3465
10.69,0.337
10.692,0.3295
10.694,0.333
10.696,0.3385
10.698,0.3405
10.7,0.3405
10.702,0.342
10.704,0.335
10.706,0.3305
10.708,0.3245
10.71,0.3215
10.712,0.3155
10.714,0.3235
10.716,0.323
10.718,0.3245
10.72,0.3255
10.722,0.3315
10.724,0.3225
10.726,0.3135
10.728,0.3095
10.73,0.304
10.732,0.302
10.734,0.305
10.736,0.311
10.738,0.3185
10.74,0.3055
10.742,0.321
10.744,0.3205
10.746,0.316
10.748,0.3035
10.75,0.305
10.752,0.2915
10.754,0.294
10.756,0.307
10.758,0.3145
10.76,0.315
10.762,0.3205
10.764,0.315
10.766,0.308
10.768,0.301
10.77,0.297
10.772,0.292
10.774,0.298
10.776,0.304
10.778,0.306
10.78,0.312
10.782,0.312
10.784,0.308
10.786,0.3035
10.788,0.2955
10.79,0.288
10.792,0.285
10.794,0.289
10.796,0.291
10.798,0.2915
10.8,0.301
10.802,0.3005
10.804,0.286
10.806,0.2875
10.808,0.2805
10.81,0.276
10.812,0.2725
10.814,0.276
10.816,0.281
10.818,0.2965
10.82,0.296
10.822,0.2905
10.824,0.285
10.826,0.275
10.828,0.2695
10.83,0.2575
10.832,0.2525
10.834,0.263
10.836,0.2725
10.838,0.2715
10.84,0.2775
10.842,0.2785
10.844,0.266
10.846,0.2575
10.848,0.259
10.85,0.254
10.852,0.248
10.854,0.2555
10.856,0.2505
10.858,0.255
10.86,0.268
10.862,0.2645
10.864,0.2635
10.866,0.255
10.868,0.26
10.87,0.248
10.872,0.243
10.874,0.253
10.876,0.2645
10.878,0.264
10.88,0.2605
10.882,0.267
10.884,0.2645
10.886,0.2585
10.888,0.2565
10.89,0.256
10.892,0.248
10.894,0.2615
10.896,0.269
10.898,0.276
10.9,0.276
10.902,0.2845
10.904,0.273
10.906,0.2675
10.908,0.2635
10.91,0.2585
10.912,0.273
10.914,0.272
10.916,0.288
10.918,0.2915
10.92,0.289
10.922,0.295
10.924,0.291
10.926,0.2855
10.928,0.2795
10.93,0.2655
10.932,0.2595
10.934,0.269
10.936,0.277
10.938,0.2785
10.94,0.285
10.942,0.286
10.944,0.284
10.946,0.285
10.948,0.281
10.95,0.2705
10.952,0.2695
10.954,0.2745
10.956,0.29
10.958,0.29
10.96,0.292
10.962,0.294
10.964,0.288
10.966,0.2835
10.968,0.281
10.97,0.2805
10.972,0.2655
10.974,0.274
10.976,0.2865
10.978,0.2855
10.98,0.295
10.982,0.2905
10.984,0.288
10.986,0.292
10.988,0.276
10.99,0.275
10.992,0.2705
10.994,0.2745
10.996,0.2755
10.998,0.283
11,0.2905
11.002,0.287
11.004,0.295
11.006,0.2765
11.008,0.274
11.01,0.268
11.012,0.2665
11.014,0.272
11.016,0.277
11.018,0.283
11.02,0.286
11.022,0.2805
11.024,0.285
11.026,0.2795
11.028,0.2655
11.03,0.2635
11.032,0.2575
11.034,0.2635
11.036,0.2725
11.038,0.2795
11.04,0.278
11.042,0.2845
11.044,0.28
11.046,0.276
11.048,0.2605
11.05,0.264
11.052,0.2575
11.054,0.2605
11.056,0.2685
11.058,0.268
11.06,0.2785
11.062,0.2825
11.064,0.277
11.066,0.2665
11.068,0.265
11.07,0.251
11.072,0.251
11.074,0.259
11.076,0.2575
11.078,0.2695
11.08,0.267
11.082,0.275
11.084,0.266
11.086,0.267
11.088,0.2615
11.09,0.2505
11.092,0.25
11.094,0.2635
11.096,0.2585
11.098,0.268
11.1,0.2655
11.102,0.2675
11.104,0.259
11.106,0.26
11.108,0.258
11.11,0.25
11.112,0.25
11.114,0.2545
11.116,0.2585
11.118,0.2645
11.12,0.2685
11.122,0.2745
11.124,0.2635
11.126,0.26
11.128,0.2575
11.13,0.25
11.132,0.2465
11.134,0.2425
11.136,0.2555
11.138,0.261
11.14,0.273
11.142,0.2835
11.144,0.2935
11.146,0.293
11.148,0.2785
11.15,0.2875
11.152,0.2835
11.154,0.279
11.156,0.255
11.158,0.25
11.16,0.246
11.162,0.247
11.164,0.245
11.166,0.241
11.168,0.218
11.17,0.2015
11.172,0.1935
11.174,0.1835
11.176,0.2055
11.178,0.189
11.18,0.1845
11.182,0.1715
11.184,0.1465
11.186,0.1275
11.188,0.127
11.19,0.127
11.192,0.1285
11.194,0.141
11.196,0.145
11.198,0.1555
11.2,0.168
11.202,0.1785
11.204,0.1635
11.206,0.168
11.208,0.1725
11.21,0.189
11.212,0.212
11.214,0.2195
11.216,0.232
11.218,0.252
11.22,0.2505
11.222,0.257
11.224,0.2615
11.226,0.255
11.228,0.2515
11.23,0.2535
11.232,0.245
11.234,0.256
11.236,0.2575
11.238,0.263
11.24,0.2695
11.242,0.273
11.244,0.2665
11.246,0.2685
11.248,0.2635
11.25,0.2645
11.252,0.2735
11.254,0.301
11.256,0.326
11.258,0.378
11.26,0.411
11.262,0.4605
11.264,0.498
11.266,0.5265
11.268,0.5335
11.27,0.522
11.272,0.4825
11.274,0.4355
11.276,0.374
11.278,0.335
11.28,0.302
11.282,0.2625
11.284,0.19
11.286,0.092
11.288,0.052
11.29,-0.022
11.292,-0.0815
11.294,-0.0945
11.296,-0.095
11.298,-0.0335
11.3,0.018
11.302,0.06
11.304,0.162
11.306,0.194
11.308,0.2515
11.31,0.3385
11.312,0.456
11.314,0.521
11.316,0.605
11.318,0.6685
11.32,0.6645
11.322,0.571
11.324,0.54
11.326,0.4965
11.328,0.4845
11.33,0.485
11.332,0.4935
11.334,0.5105
11.336,0.499
11.338,0.5045
11.34,0.466
11.342,0.422
11.344,0.3935
11.346,0.3755
11.348,0.358
11.35,0.351
11.352,0.346
11.354,0.344
11.356,0.3445
11.358,0.3505
11.36,0.345
11.362,0.347
11.364,0.334
11.366,0.3325
11.368,0.324
11.37,0.3175
11.372,0.3225
11.374,0.32
11.376,0.327
11.378,0.3235
11.38,0.3345
11.382,0.3295
11.384,0.3195
11.386,0.3125
11.388,0.3105
11.39,0.301
11.392,0.301
11.394,0.306
11.396,0.3085
11.398,0.316
11.4,0.317
11.402,0.3205
11.404,0.324
11.406,0.3075
11.408,0.3085
11.41,0.304
11.412,0.2965
11.414,0.301
11.416,0.3045
11.418,0.3135
11.42,0.3135
11.422,0.319
11.424,0.31
11.426,0.308
11.428,0.2995
11.43,0.292
11.432,0.296
11.434,0.2985
11.436,0.3025
11.438,0.3015
11.44,0.308
11.442,0.309
11.444,0.2995
11.446,0.293
11.448,0.2885
11.45,0.287
11.452,0.2875
11.454,0.2925
11.456,0.3065
11.458,0.301
11.46,0.3075
11.462,0.3035
11.464,0.3035
11.466,0.2965
11.468,0.2895
11.47,0.284
11.472,0.2785
11.474,0.2825
11.476,0.285
11.478,0.2895
11.48,0.289
11.482,0.297
11.484,0.285
11.486,0.283
11.488,0.2775
11.49,0.2775
11.492,0.2655
11.494,0.276
11.496,0.275
11.498,0.2835
11.5,0.2825
11.502,0.286
11.504,0.269
11.506,0.2735
11.508,0.264
11.51,0.258
11.512,0.252
11.514,0.2645
11.516,0.2635
11.518,0.2705
11.52,0.267
11.522,0.271
11.524,0.265
11.526,0.264
11.528,0.2615
11.53,0.2615
11.532,0.2605
11.534,0.2645
11.536,0.2655
11.538,0.276
11.54,0.278
11.542,0.2835
11.544,0.276
11.546,0.28
11.548,0.265
11.55,0.268
11.552,0.2655
11.554,0.269
11.556,0.2735
11.558,0.2805
11.56,0.278
11.562,0.287
11.564,0.276
11.566,0.28
11.568,0.273
11.57,0.2715
11.572,0.27
11.574,0.274
11.576,0.2805
11.578,0.2845
11.58,0.287
11.582,0.2925
11.584,0.283
11.586,0.274
11.588,0.2795
11.59,0.2755
11.592,0.2645
11.594,0.278
11.596,0.272
11.598,0.287
11.6,0.2935
11.602,0.2945
11.604,0.2855
11.606,0.2815
11.608,0.277
11.61,0.2735
11.612,0.269
11.614,0.2775
11.616,0.276
11.618,0.2845
11.62,0.2875
11.622,0.2955
11.624,0.2875
11.626,0.278
11.628,0.2815
11.63,0.2765
11.632,0.267
11.634,0.2765
11.636,0.284
11.638,0.2855
11.64,0.293
11.642,0.294
11.644,0.2895
11.646,0.284
11.648,0.2775
11.65,0.276
11.652,0.2655
11.654,0.271
11.656,0.279
11.658,0.282
11.66,0.2845
11.662,0.289
11.664,0.284
11.666,0.276
11.668,0.2675
11.67,0.2665
11.672,0.2615
11.674,0.269
11.676,0.2765
11.678,0.2865
11.68,0.289
11.682,0.2905
11.684,0.288
11.686,0.2785
11.688,0.269
11.69,0.262
11.692,0.262
11.694,0.2655
11.696,0.269
11.698,0.2765
11.7,0.279
11.702,0.2795
11.704,0.2765
11.706,0.2685
11.708,0.2625
11.71,0.257
11.712,0.2565
11.714,0.258
11.716,0.272
11.718,0.2715
11.72,0.2735
11.722,0.284
11.724,0.275
11.726,0.2685
11.728,0.26
11.73,0.2535
11.732,0.252
11.734,0.256
11.736,0.26
11.738,0.2625
11.74,0.2715
11.742,0.2715
11.744,0.2695
11.746,0.2645
11.748,0.258
11.75,0.253
11.752,0.252
11.754,0.2575
11.756,0.2615
11.758,0.267
11.76,0.273
11.762,0.273
11.764,0.271
11.766,0.259
11.768,0.2515
11.77,0.249
11.772,0.252
11.774,0.2765
11.776,0.286
11.778,0.2925
11.78,0.2955
11.782,0.3
11.784,0.2965
11.786,0.287
11.788,0.261
11.79,0.2285
11.792,0.218
11.794,0.232
11.796,0.2435
11.798,0.247
11.8,0.23
11.802,0.2265
11.804,0.214
11.806,0.1945
11.808,0.193
11.81,0.177
11.812,0.1635
11.814,0.157
11.816,0.136
11.818,0.137
11.82,0.1375
11.822,0.145
11.824,0.146
11.826,0.1425
11.828,0.14
11.83,0.142
11.832,0.145
11.834,0.1515
11.836,0.156
11.838,0.1695
11.84,0.1915
11.842,0.2195
11.844,0.219
11.846,0.233
11.848,0.2335
11.85,0.23
11.852,0.238
11.854,0.242
11.856,0.2465
11.858,0.2555
11.86,0.262
11.862,0.2695
11.864,0.2635
11.866,0.2605
11.868,0.25
11.87,0.2465
11.872,0.2425
11.874,0.249
11.876,0.2525
11.878,0.264
11.88,0.272
11.882,0.2825
11.884,0.2845
11.886,0.2935
11.888,0.311
11.89,0.342
11.892,0.3775
11.894,0.4215
11.896,0.4765
11.898,0.525
11.9,0.5565
11.902,0.56
11.904,0.5405
11.906,0.478
11.908,0.4045
11.91,0.347
11.912,0.2975
11.914,0.273
11.916,0.228
11.918,0.135
11.92,0.063
11.922,0.046
11.924,-0.0475
11.926,-0.084
11.928,-0.118
11.93,-0.079
11.932,-0.035
11.934,0.001
11.936,0.0875
11.938,0.1785
11.94,0.2305
11.942,0.31
11.944,0.429
11.946,0.5015
11.948,0.5785
11.95,0.63
11.952,0.6475
11.954,0.573
11.956,0.5035
11.958,0.496
11.96,0.4795
11.962,0.5005
11.964,0.502
11.966,0.497
11.968,0.496
11.97,0.492
11.972,0.447
11.974,0.41
11.976,0.388
11.978,0.3785
11.98,0.3645
11.982,0.373
11.984,0.36
11.986,0.349
11.988,0.3405
11.99,0.3355
11.992,0.3345
11.994,0.3265
11.996,0.3325
11.998,0.3375
12,0.3375
12.002,0.336
12.004,0.332
12.006,0.329
12.008,0.3175
12.01,0.3155
12.012,0.308
12.014,0.314
12.016,0.316
12.018,0.322
12.02,0.324
12.022,0.325
12.024,0.324
12.026,0.3105
12.028,0.304
12.03,0.2935
12.032,0.304
12.034,0.3025
12.036,0.302
12.038,0.3145
12.04,0.314
12.042,0.323
12.044,0.319
12.046,0.3125
12.048,0.304
12.05,0.301
12.052,0.2945
12.054,0.303
12.056,0.3075
12.058,0.313
12.06,0.315
12.062,0.3135
12.064,0.3115
12.066,0.304
12.068,0.2995
12.07,0.2965
12.072,0.294
12.074,0.293
12.076,0.301
12.078,0.304
12.08,0.307
12.082,0.3065
12.084,0.305
12.086,0.301
12.088,0.2935
12.09,0.29
12.092,0.287
12.094,0.292
12.096,0.294
12.098,0.3005
12.1,0.301
12.102,0.3045
12.104,0.295
12.106,0.295
12.108,0.289
12.11,0.2785
12.112,0.2765
12.114,0.2785
12.116,0.281
12.118,0.285
12.12,0.2935
12.122,0.2965
12.124,0.285
12.126,0.2845
12.128,0.269
12.13,0.267
12.132,0.256
12.134,0.2645
12.136,0.2675
12.138,0.2795
12.14,0.279
12.142,0.2775
12.144,0.2725
12.146,0.269
12.148,0.2595
12.15,0.2585
12.152,0.2525
12.154,0.259
12.156,0.264
12.158,0.2655
12.16,0.2675
12.162,0.273
12.164,0.268
12.166,0.2595
12.168,0.2605
12.17,0.246
12.172,0.2445
12.174,0.2515
12.176,0.2525
12.178,0.2665
12.18,0.267
12.182,0.273
12.184,0.264
12.186,0.263
12.188,0.257
12.19,0.2545
12.192,0.255
12.194,0.2585
12.196,0.2605
12.198,0.27
12.2,0.271
12.202,0.285
12.204,0.2765
12.206,0.2685
12.208,0.2625
12.21,0.264
12.212,0.2545
12.214,0.266
12.216,0.266
12.218,0.275
12.22,0.277
12.222,0.2835
12.224,0.276
12.226,0.2725
12.228,0.2655
12.23,0.2575
12.232,0.2575
12.234,0.2605
12.236,0.2675
12.238,0.274
12.24,0.277
12.242,0.2865
12.244,0.28
12.246,0.275
12.248,0.267
12.25,0.263
12.252,0.259
12.254,0.2665
12.256,0.266
12.258,0.279
12.26,0.2755
12.262,0.282
12.264,0.2735
12.266,0.27
12.268,0.268
12.27,0.265
12.272,0.2565
12.274,0.2665
12.276,0.271
12.278,0.281
12.28,0.279
12.282,0.2875
12.284,0.2775
12.286,0.2755
12.288,0.2715
12.29,0.2605
12.292,0.2575
12.294,0.266
12.296,0.2695
12.298,0.272
12.3,0.2805
12.302,0.2795
12.304,0.2715
12.306,0.2665
12.308,0.2595
12.31,0.261
12.312,0.26
12.314,0.255
12.316,0.2675
12.318,0.272
12.32,0.2725
12.322,0.2805
12.324,0.2705
12.326,0.2705
12.328,0.265
12.33,0.2595
12.332,0.256
12.334,0.2545
12.336,0.267
12.338,0.272
12.34,0.2705
12.342,0.2765
12.344,0.272
12.346,0.2615
12.348,0.257
12.35,0.2545
12.352,0.2435
12.354,0.252
12.356,0.2575
12.358,0.2635
12.36,0.2725
12.362,0.2755
12.364,0.266
12.366,0.263
12.368,0.255
12.37,0.2515
12.372,0.249
12.374,0.248
12.376,0.253
12.378,0.2635
12.38,0.267
12.382,0.268
12.384,0.264
12.386,0.263
12.388,0.2525
12.39,0.247
12.392,0.2445
12.394,0.246
12.396,0.258
12.398,0.2615
12.4,0.2665
12.402,0.2655
12.404,0.262
12.406,0.2585
12.408,0.244
12.41,0.2425
12.412,0.2355
12.414,0.248
12.416,0.2655
12.418,0.279
12.42,0.2925
12.422,0.295
12.424,0.289
12.426,0.2885
12.428,0.285
12.43,0.2725
12.432,0.248
12.434,0.227
12.436,0.2235
12.438,0.243
12.44,0.2495
12.442,0.251
12.444,0.226
12.446,0.2125
12.448,0.1935
12.45,0.192
12.452,0.1865
12.454,0.1785
12.456,0.168
12.458,0.158
12.46,0.1435
12.462,0.143
12.464,0.1395
12.466,0.1385
12.468,0.1345
12.47,0.1375
12.472,0.1305
12.474,0.1395
12.476,0.149
12.478,0.155
12.48,0.1655
12.482,0.171
12.484,0.1875
12.486,0.2045
12.488,0.207
12.49,0.214
12.492,0.2245
12.494,0.2285
12.496,0.236
12.498,0.2465
12.5,0.2545
12.502,0.2585
12.504,0.258
12.506,0.252
12.508,0.2485
12.51,0.244
12.512,0.238
12.514,0.247
12.516,0.2505
12.518,0.262
12.52,0.264
12.522,0.2715
12.524,0.268
12.526,0.271
12.528,0.2705
12.53,0.283
12.532,0.302
12.534,0.3395
12.536,0.3855
12.538,0.4385
12.54,0.4885
12.542,0.526
12.544,0.543
12.546,0.54
12.548,0.514
12.55,0.456
12.552,0.3895
12.554,0.3405
12.556,0.3015
12.558,0.279
12.56,0.2375
12.562,0.128
12.564,0.0605
12.566,0.019
12.568,-0.052
12.57,-0.0855
12.572,-0.1285
12.574,-0.074
12.576,-0.035
12.578,0.011
12.58,0.097
12.582,0.1755
12.584,0.24
12.586,0.324
12.588,0.437
12.59,0.511
12.592,0.5855
12.594,0.6335
12.596,0.64
12.598,0.525
12.6,0.4925
12.602,0.4665
12.604,0.462
12.606,0.474
12.608,0.4775
12.61,0.478
12.612,0.4825
12.614,0.4745
12.616,0.435
12.618,0.4055
12.62,0.391
12.622,0.3745
12.624,0.363
12.626,0.359
12.628,0.3525
12.63,0.344
12.632,0.3325
12.634,0.339
12.636,0.338
12.638,0.345
12.64,0.347
12.642,0.343
12.644,0.336
12.646,0.3275
12.648,0.3245
12.65,0.32
12.652,0.311
12.654,0.314
12.656,0.32
12.658,0.3225
12.66,0.331
12.662,0.333
12.664,0.3275
12.666,0.3175
12.668,0.3125
12.67,0.3085
12.672,0.3035
12.674,0.3055
12.676,0.309
12.678,0.313
12.68,0.3165
12.682,0.3185
12.684,0.319
12.686,0.3115
12.688,0.306
12.69,0.3
12.692,0.2955
12.694,0.301
12.696,0.305
12.698,0.3085
12.7,0.311
12.702,0.318
12.704,0.315
12.706,0.3105
12.708,0.2995
12.71,0.298
12.712,0.2875
12.714,0.295
12.716,0.301
12.718,0.3055
12.72,0.3065
12.722,0.3155
12.724,0.3135
12.726,0.3005
12.728,0.297
12.73,0.294
12.732,0.286
12.734,0.2925
12.736,0.2985
12.738,0.302
12.74,0.305
12.742,0.304
12.744,0.3025
12.746,0.297
12.748,0.2865
12.75,0.2805
12.752,0.2815
12.754,0.284
12.756,0.2905
12.758,0.2955
12.76,0.2925
12.762,0.298
12.764,0.295
12.766,0.284
12.768,0.281
12.77,0.273
12.772,0.2635
12.774,0.272
12.776,0.275
12.778,0.278
12.78,0.2785
12.782,0.2875
12.784,0.2755
12.786,0.272
12.788,0.265
12.79,0.2595
12.792,0.2535
12.794,0.2545
12.796,0.2585
12.798,0.263
12.8,0.269
12.802,0.269
12.804,0.269
12.806,0.2605
12.808,0.253
12.81,0.2505
12.812,0.2465
12.814,0.2495
12.816,0.256
12.818,0.262
12.82,0.2695
12.822,0.275
12.824,0.273
12.826,0.264
12.828,0.2565
12.83,0.251
12.832,0.254
12.834,0.256
12.836,0.266
12.838,0.267
12.84,0.2755
12.842,0.278
12.844,0.2745
12.846,0.2715
12.848,0.264
12.85,0.2615
12.852,0.259
12.854,0.266
12.856,0.2675
12.858,0.274
12.86,0.2785
12.862,0.285
12.864,0.278
12.866,0.2785
12.868,0.2675
12.87,0.267
12.872,0.258
12.874,0.2625
12.876,0.272
12.878,0.277
12.88,0.2805
12.882,0.2835
12.884,0.28
12.886,0.2685
12.888,0.2705
12.89,0.2655
12.892,0.263
12.894,0.265
12.896,0.2735
12.898,0.2775
12.9,0.282
12.902,0.288
12.904,0.2805
12.906,0.2805
12.908,0.2665
12.91,0.2655
12.912,0.2625
12.914,0.2685
12.916,0.2725
12.918,0.2765
12.92,0.28
12.922,0.2845
12.924,0.2855
12.926,0.276
12.928,0.269
12.93,0.2665
12.932,0.2555
12.934,0.263
12.936,0.272
12.938,0.2805
12.94,0.281
12.942,0.288
12.944,0.2785
12.946,0.2745
12.948,0.2665
12.95,0.264
12.952,0.2645
12.954,0.2665
12.956,0.268
12.958,0.2715
12.96,0.278
12.962,0.2815
12.964,0.2805
12.966,0.271
12.968,0.255
12.97,0.2625
12.972,0.263
12.974,0.262
12.976,0.2625
12.978,0.2645
12.98,0.2705
12.982,0.275
12.984,0.269
12.986,0.2685
12.988,0.262
12.99,0.2575
12.992,0.25
12.994,0.252
12.996,0.261
12.998,0.2645
13,0.263
13.002,0.2725
13.004,0.2675
13.006,0.261
13.008,0.258
13.01,0.255
13.012,0.2465
13.014,0.245
13.016,0.253
13.018,0.257
13.02,0.262
13.022,0.267
13.024,0.2675
13.026,0.258
13.028,0.2475
13.03,0.252
13.032,0.2455
13.034,0.2485
13.036,0.253
13.038,0.26
13.04,0.261
13.042,0.2655
13.044,0.2655
13.046,0.257
13.048,0.2485
13.05,0.247
13.052,0.244
13.054,0.251
13.056,0.2515
13.058,0.263
13.06,0.257
13.062,0.2605
13.064,0.2535
13.066,0.2565
13.068,0.267
13.07,0.2745
13.072,0.2705
13.074,0.269
13.076,0.293
13.078,0.283
13.08,0.2855
13.082,0.28
13.084,0.256
13.086,0.225
13.088,0.226
13.09,0.234
13.092,0.2335
13.094,0.2195
13.096,0.216
13.098,0.2095
13.1,0.197
13.102,0.211
13.104,0.202
13.106,0.173
13.108,0.1595
13.11,0.1335
13.112,0.1115
13.114,0.1235
13.116,0.131
13.118,0.1405
13.12,0.147
13.122,0.154
13.124,0.149
13.126,0.1445
13.128,0.1355
13.13,0.137
13.132,0.1415
13.134,0.1535
13.136,0.18
13.138,0.2085
13.14,0.2165
13.142,0.238
13.144,0.241
13.146,0.2365
13.148,0.227
13.15,0.2295
13.152,0.232
13.154,0.235
13.156,0.242
13.158,0.2475
13.16,0.2535
13.162,0.258
13.164,0.2615
13.166,0.248
13.168,0.244
13.17,0.244
13.172,0.234
13.174,0.235
13.176,0.255
13.178,0.2635
13.18,0.275
13.182,0.309
13.184,0.324
13.186,0.362
13.188,0.3975
13.19,0.44
13.192,0.477
13.194,0.5105
13.196,0.532
13.198,0.5255
13.2,0.4945
13.202,0.4345
13.204,0.3835
13.206,0.3095
13.208,0.296
13.21,0.2425
13.212,0.174
13.214,0.0775
13.216,0.046
13.218,-0.0175
13.22,-0.047
13.222,-0.0875
13.224,-0.088
13.226,-0.0565
13.228,-0.021
13.23,0.0395
13.232,0.125
13.234,0.1935
13.236,0.2565
13.238,0.3925
13.24,0.476
13.242,0.561
13.244,0.623
13.246,0.6505
13.248,0.5635
13.25,0.4775
13.252,0.4485
13.254,0.4205
13.256,0.4555
13.258,0.457
13.26,0.479
13.262,0.487
13.264,0.482
13.266,0.4405
13.268,0.402
13.27,0.375
13.272,0.3455
13.274,0.3415
13.276,0.349
13.278,0.3555
13.28,0.352
13.282,0.3515
13.284,0.3485
13.286,0.337
13.288,0.3245
13.29,0.318
13.292,0.313
13.294,0.318
13.296,0.314
13.298,0.326
13.3,0.33
13.302,0.333
13.304,0.326
13.306,0.3205
13.308,0.309
13.31,0.3055
13.312,0.3045
13.314,0.3065
13.316,0.314
13.318,0.314
13.32,0.3195
13.322,0.3215
13.324,0.3145
13.326,0.3075
13.328,0.3035
13.33,0.3035
13.332,0.2985
13.334,0.302
13.336,0.3015
13.338,0.314
13.34,0.308
13.342,0.3145
13.344,0.3155
13.346,0.3065
13.348,0.305
13.35,0.2945
13.352,0.284
13.354,0.2925
13.356,0.292
13.358,0.304
13.36,0.308
13.362,0.311
13.364,0.31
13.366,0.3035
13.368,0.295
13.37,0.292
13.372,0.2825
13.374,0.29
13.376,0.287
13.378,0.2955
13.38,0.3095
13.382,0.315
13.384,0.302
13.386,0.293
13.388,0.2895
13.39,0.283
13.392,0.2845
13.394,0.28
13.396,0.285
13.398,0.2935
13.4,0.294
13.402,0.301
13.404,0.297
13.406,0.29
13.408,0.2805
13.41,0.2735
13.412,0.2665
13.414,0.2655
13.416,0.2695
13.418,0.2805
13.42,0.2825
13.422,0.2895
13.424,0.285
13.426,0.276
13.428,0.2645
13.43,0.2655
13.432,0.2555
13.434,0.2565
13.436,0.2565
13.438,0.256
13.44,0.265
13.442,0.271
13.444,0.2665
13.446,0.2625
13.448,0.243
13.45,0.245
13.452,0.244
13.454,0.2415
13.456,0.2465
13.458,0.252
13.46,0.257
13.462,0.263
13.464,0.257
13.466,0.25
13.468,0.243
13.47,0.244
13.472,0.244
13.474,0.2415
13.476,0.254
13.478,0.2585
13.48,0.26
13.482,0.265
13.484,0.2645
13.486,0.2565
13.488,0.257
13.49,0.2525
13.492,0.249
13.494,0.2535
13.496,0.263
13.498,0.267
13.5,0.273
13.502,0.276
13.504,0.2725
13.506,0.2695
13.508,0.258
13.51,0.258
13.512,0.26
13.514,0.2605
13.516,0.2655
13.518,0.2685
13.52,0.27
13.522,0.272
13.524,0.2725
13.526,0.261
13.528,0.268
13.53,0.2595
13.532,0.2635
13.534,0.2635
13.536,0.2735
13.538,0.2765
13.54,0.276
13.542,0.2875
13.544,0.281
13.546,0.2725
13.548,0.2655
13.55,0.2595
13.552,0.256
13.554,0.2585
13.556,0.2675
13.558,0.273
13.56,0.2715
13.562,0.2835
13.564,0.271
13.566,0.2755
13.568,0.2645
13.57,0.261
13.572,0.2545
13.574,0.2555
13.576,0.273
13.578,0.2755
13.58,0.277
13.582,0.28
13.584,0.279
13.586,0.2665
13.588,0.2655
13.59,0.2625
13.592,0.2605
13.594,0.2535
13.596,0.265
13.598,0.2705
13.6,0.269
13.602,0.2745
13.604,0.269
13.606,0.266
13.608,0.2585
13.61,0.255
13.612,0.251
13.614,0.2505
13.616,0.25
13.618,0.2595
13.62,0.2655
13.622,0.261
13.624,0.265
13.626,0.2625
13.628,0.2525
13.63,0.2515
13.632,0.2445
13.634,0.2515
13.636,0.2575
13.638,0.253
13.64,0.254
13.642,0.261
13.644,0.26
13.646,0.2535
13.648,0.2485
13.65,0.2475
13.652,0.237
13.654,0.231
13.656,0.244
13.658,0.249
13.66,0.2545
13.662,0.261
13.664,0.2565
13.666,0.251
13.668,0.247
13.67,0.2445
13.672,0.236
13.674,0.2475
13.676,0.243
13.678,0.251
13.68,0.2575
13.682,0.2665
13.684,0.256
13.686,0.243
13.688,0.24
13.69,0.2355
13.692,0.227
13.694,0.2305
13.696,0.2285
13.698,0.246
13.7,0.2515
13.702,0.255
13.704,0.25
13.706,0.245
13.708,0.2425
13.71,0.2365
13.712,0.235
13.714,0.232
13.716,0.239
13.718,0.2295
13.72,0.2425
13.722,0.25
13.724,0.261
13.726,0.264
13.728,0.261
13.73,0.256
13.732,0.252
13.734,0.2495
13.736,0.2625
13.738,0.26
13.74,0.2435
13.742,0.2265
13.744,0.231
13.746,0.2335
13.748,0.2345
13.75,0.2215
13.752,0.192
13.754,0.186
13.756,0.162
13.758,0.1775
13.76,0.177
13.762,0.1665
13.764,0.1615
13.766,0.135
13.768,0.1125
13.77,0.104
13.772,0.095
13.774,0.1125
13.776,0.1155
13.778,0.1175
13.78,0.128
13.782,0.1325
13.784,0.141
13.786,0.132
13.788,0.1325
13.79,0.137
13.792,0.157
13.794,0.181
13.796,0.2045
13.798,0.2175
13.8,0.232
13.802,0.23
13.804,0.223
13.806,0.231
13.808,0.224
13.81,0.2265
13.812,0.221
13.814,0.231
13.816,0.2335
13.818,0.234
13.82,0.237
13.822,0.2405
13.824,0.2455
13.826,0.2455
13.828,0.231
13.83,0.236
13.832,0.2375
13.834,0.243
13.836,0.263
13.838,0.283
13.84,0.321
13.842,0.364
13.844,0.3925
13.846,0.435
13.848,0.4605
13.85,0.504
13.852,0.5075
13.854,0.49
13.856,0.465
13.858,0.3925
13.86,0.348
13.862,0.3015
13.864,0.2735
13.866,0.204
13.868,0.13
13.87,0.0445
13.872,0.0255
13.874,-0.0635
13.876,-0.1025
13.878,-0.1235
13.88,-0.104
13.882,-0.0525
13.884,-0.004
13.886,0.045
13.888,0.1485
13.89,0.1655
13.892,0.233
13.894,0.3415
13.896,0.449
13.898,0.5095
13.9,0.608
13.902,0.6515
13.904,0.639
13.906,0.519
13.908,0.5145
13.91,0.46
13.912,0.4505
13.914,0.461
13.916,0.4775
13.918,0.486
13.92,0.4845
13.922,0.4725
13.924,0.42
13.926,0.3785
13.928,0.3585
13.93,0.329
13.932,0.3235
13.934,0.3275
13.936,0.3335
13.938,0.329
13.94,0.3285
13.942,0.3285
13.944,0.3295
13.946,0.3145
13.948,0.3085
13.95,0.303
13.952,0.301
13.954,0.297
13.956,0.303
13.958,0.303
13.96,0.3065
13.962,0.3005
13.964,0.298
13.966,0.2955
13.968,0.282
13.97,0.281
13.972,0.285
13.974,0.281
13.976,0.288
13.978,0.2815
13.98,0.2935
13.982,0.294
13.984,0.296
13.986,0.286
13.988,0.281
13.99,0.278
13.992,0.2775
13.994,0.2755
13.996,0.283
13.998,0.2825
14,0.281
14.002,0.3015
14.004,0.2915
14.006,0.289
14.008,0.282
14.01,0.273
14.012,0.267
14.014,0.2715
14.016,0.274
14.018,0.2795
14.02,0.275
14.022,0.289
14.024,0.2835
14.026,0.279
14.028,0.271
14.03,0.265
14.032,0.2675
14.034,0.267
14.036,0.264
14.038,0.274
14.04,0.2865
14.042,0.2745
14.044,0.2815
14.046,0.2695
14.048,0.2685
14.05,0.2545
14.052,0.2635
14.054,0.2575
14.056,0.2605
14.058,0.2685
14.06,0.2715
14.062,0.275
14.064,0.2715
14.066,0.257
14.068,0.257
14.07,0.2485
14.072,0.236
14.074,0.2465
14.076,0.245
14.078,0.255
14.08,0.2445
14.082,0.2565
14.084,0.2535
14.086,0.2475
14.088,0.247
14.09,0.2355
14.092,0.224
14.094,0.231
14.096,0.234
14.098,0.2415
14.1,0.2375
14.102,0.245
14.104,0.2395
14.106,0.229
14.108,0.2235
14.11,0.2295
14.112,0.227
14.114,0.2185
14.116,0.2365
14.118,0.2405
14.12,0.2495
14.122,0.255
14.124,0.251
14.126,0.2365
14.128,0.237
14.13,0.2295
14.132,0.2385
14.134,0.228
14.136,0.2365
14.138,0.237
14.14,0.256
14.142,0.252
14.144,0.2515
14.146,0.2535
14.148,0.2495
14.15,0.238
14.152,0.2385
14.154,0.242
14.156,0.248
14.158,0.254
14.16,0.258
14.162,0.2655
14.164,0.2595
14.166,0.247
14.168,0.2395
14.17,0.2415
14.172,0.2455
14.174,0.2475
14.176,0.2485
14.178,0.263
14.18,0.2625
14.182,0.263
14.184,0.2645
14.186,0.2585
14.188,0.25
14.19,0.249
14.192,0.2405
14.194,0.244
14.196,0.251
14.198,0.258
14.2,0.2635
14.202,0.263
14.204,0.2645
14.206,0.2485
14.208,0.255
14.21,0.235
14.212,0.2485
14.214,0.2425
14.216,0.249
14.218,0.256
14.22,0.2595
14.222,0.265
14.224,0.2595
14.226,0.2565
14.228,0.255
14.23,0.2425
14.232,0.2435
14.234,0.242
14.236,0.248
14.238,0.249
14.24,0.255
14.242,0.262
14.244,0.2545
14.246,0.2485
14.248,0.2455
14.25,0.2425
14.252,0.239
14.254,0.233
14.256,0.2485
14.258,0.253
14.26,0.257
14.262,0.259
14.264,0.2605
14.266,0.253
14.268,0.2445
14.27,0.2355
14.272,0.2335
14.274,0.224
14.276,0.239
14.278,0.2425
14.28,0.249
14.282,0.2545
14.284,0.2535
14.286,0.2435
14.288,0.2385
14.29,0.231
14.292,0.2275
14.294,0.2245
14.296,0.2335
14.298,0.241
14.3,0.2435
14.302,0.2495
14.304,0.2505
14.306,0.239
14.308,0.232
14.31,0.231
14.312,0.2255
14.314,0.231
14.316,0.224
14.318,0.2315
14.32,0.235
14.322,0.236
14.324,0.236
14.326,0.229
14.328,0.2225
14.33,0.2195
14.332,0.219
14.334,0.219
14.336,0.2235
14.338,0.235
14.34,0.2345
14.342,0.2355
14.344,0.235
14.346,0.234
14.348,0.227
14.35,0.2265
14.352,0.221
14.354,0.2205
14.356,0.2295
14.358,0.2255
14.36,0.229
14.362,0.238
14.364,0.248
14.366,0.254
14.368,0.242
14.37,0.25
14.372,0.238
14.374,0.254
14.376,0.2565
14.378,0.2535
14.38,0.236
14.382,0.215
14.384,0.21
14.386,0.2155
14.388,0.2115
14.39,0.198
14.392,0.1785
14.394,0.1695
14.396,0.1605
14.398,0.172
14.4,0.1805
14.402,0.155
14.404,0.155
14.406,0.1285
14.408,0.098
14.41,0.087
14.412,0.0905
14.414,0.1005
14.416,0.1075
14.418,0.1065
14.42,0.1195
14.422,0.129
14.424,0.1265
14.426,0.129
14.428,0.124
14.43,0.122
14.432,0.1335
14.434,0.168
14.436,0.184
14.438,0.2005
14.44,0.22
14.442,0.2175
14.444,0.219
14.446,0.2185
14.448,0.213
14.45,0.214
14.452,0.2115
14.454,0.2135
14.456,0.22
14.458,0.227
14.46,0.2225
14.462,0.239
14.464,0.233
14.466,0.231
14.468,0.2245
14.47,0.2235
14.472,0.2195
14.474,0.23
14.476,0.242
14.478,0.2705
14.48,0.2965
14.482,0.3365
14.484,0.377
14.486,0.413
14.488,0.465
14.49,0.497
14.492,0.5095
14.494,0.505
14.496,0.4855
14.498,0.4165
14.5,0.371
14.502,0.311
14.504,0.2825
14.506,0.2235
14.508,0.163
14.51,0.056
14.512,0.008
14.514,-0.045
14.516,-0.1005
14.518,-0.122
14.52,-0.1325
14.522,-0.076
14.524,-0.028
14.526,0.005
14.528,0.1025
14.53,0.1355
14.532,0.199
14.534,0.284
14.536,0.4105
14.538,0.489
14.54,0.5725
14.542,0.63
14.544,0.6275
14.546,0.5245
14.548,0.4865
14.55,0.4545
14.552,0.4405
14.554,0.4535
14.556,0.47
14.558,0.4785
14.56,0.4825
14.562,0.4785
14.564,0.426
14.566,0.381
14.568,0.354
14.57,0.33
14.572,0.3075
14.574,0.3115
14.576,0.314
14.578,0.3195
14.58,0.322
14.582,0.324
14.584,0.32
14.586,0.309
14.588,0.3045
14.59,0.2965
14.592,0.2835
14.594,0.2825
14.596,0.286
14.598,0.288
14.6,0.2945
14.602,0.294
14.604,0.294
14.606,0.2875
14.608,0.2785
14.61,0.2755
14.612,0.275
14.614,0.274
14.616,0.2755
14.618,0.284
14.62,0.283
14.622,0.2895
14.624,0.2875
14.626,0.276
14.628,0.272
14.63,0.2645
14.632,0.266
14.634,0.262
14.636,0.272
14.638,0.2695
14.64,0.281
14.642,0.294
14.644,0.2855
14.646,0.2765
14.648,0.2735
14.65,0.2705
14.652,0.2565
14.654,0.267
14.656,0.2685
14.658,0.2745
14.66,0.2825
14.662,0.284
14.664,0.285
14.666,0.2725
14.668,0.267
14.67,0.2645
14.672,0.261
14.674,0.252
14.676,0.264
14.678,0.2675
14.68,0.2725
14.682,0.2745
14.684,0.2635
14.686,0.2635
14.688,0.2585
14.69,0.255
14.692,0.2545
14.694,0.2465
14.696,0.2585
14.698,0.2645
14.7,0.2615
14.702,0.268
14.704,0.2665
14.706,0.2585
14.708,0.25
14.71,0.244
14.712,0.2395
14.714,0.239
14.716,0.244
14.718,0.2455
14.72,0.249
14.722,0.2525
14.724,0.254
14.726,0.244
14.728,0.241
14.73,0.233
14.732,0.227
14.734,0.2285
14.736,0.2355
14.738,0.2355
14.74,0.244
14.742,0.243
14.744,0.2495
14.746,0.2375
14.748,0.2315
14.75,0.2235
14.752,0.219
14.754,0.2205
14.756,0.223
14.758,0.231
14.76,0.2345
14.762,0.2415
14.764,0.2465
14.766,0.232
14.768,0.227
14.77,0.2265
14.772,0.2295
14.774,0.2245
14.776,0.236
14.778,0.2475
14.78,0.244
14.782,0.2505
14.784,0.2555
14.786,0.246
14.788,0.2415
14.79,0.2355
14.792,0.2335
14.794,0.2315
14.796,0.238
14.798,0.24
14.8,0.249
14.802,0.2555
14.804,0.253
14.806,0.2425
14.808,0.25
14.81,0.2395
14.812,0.233
14.814,0.235
14.816,0.2405
14.818,0.2455
14.82,0.2485
14.822,0.258
14.824,0.256
14.826,0.248
14.828,0.2425
14.83,0.2425
14.832,0.234
14.834,0.236
14.836,0.243
14.838,0.2445
14.84,0.2525
14.842,0.258
14.844,0.2505
14.846,0.2495
14.848,0.2465
14.85,0.2365
14.852,0.235
14.854,0.2375
14.856,0.242
14.858,0.2455
14.86,0.2535
14.862,0.257
14.864,0.254
14.866,0.2465
14.868,0.2405
14.87,0.2305
14.872,0.234
14.874,0.2285
14.876,0.2415
14.878,0.244
14.88,0.248
14.882,0.251
14.884,0.25
14.886,0.2455
14.888,0.2395
14.89,0.2365
14.892,0.231
14.894,0.2295
14.896,0.236
14.898,0.241
14.9,0.2475
14.902,0.2495
14.904,0.2445
14.906,0.249
14.908,0.2325
14.91,0.236
14.912,0.231
14.914,0.2315
14.916,0.235
14.918,0.2405
14.92,0.2415
14.922,0.2485
14.924,0.244
14.926,0.2375
14.928,0.2275
14.93,0.2275
14.932,0.217
14.934,0.222
14.936,0.2245
14.938,0.229
14.94,0.2325
14.942,0.239
14.944,0.2385
14.946,0.229
14.948,0.2235
14.95,0.226
14.952,0.2135
14.954,0.2165
14.956,0.223
14.958,0.228
14.96,0.2335
14.962,0.236
14.964,0.235
14.966,0.2235
14.968,0.2235
14.97,0.218
14.972,0.2135
14.974,0.2135
14.976,0.223
14.978,0.229
14.98,0.2275
14.982,0.2285
14.984,0.2295
14.986,0.232
14.988,0.22
14.99,0.2165
14.992,0.2115
14.994,0.211
14.996,0.221
14.998,0.222
15,0.2315
15.002,0.234
15.004,0.23
15.006,0.226
15.008,0.23
15.01,0.214
15.012,0.2215
15.014,0.212
15.016,0.2185
15.018,0.217
15.02,0.228
15.022,0.2495
15.024,0.2555
15.026,0.2495
15.028,0.249
15.03,0.243
15.032,0.2445
15.034,0.244
15.036,0.2365
15.038,0.215
15.04,0.1955
15.042,0.2055
15.044,0.2105
15.046,0.2135
15.048,0.2
15.05,0.178
15.052,0.1615
15.054,0.1465
15.056,0.17
15.058,0.164
15.06,0.1535
15.062,0.1535
15.064,0.1325
15.066,0.106
15.068,0.101
15.07,0.0995
15.072,0.103
15.074,0.1045
15.076,0.112
15.078,0.117
15.08,0.1285
15.082,0.135
15.084,0.131
15.086,0.1355
15.088,0.14
15.09,0.1515
15.092,0.1695
15.094,0.1775
15.096,0.1945
15.098,0.21
15.1,0.224
15.102,0.227
15.104,0.221
15.106,0.225
15.108,0.2245
15.11,0.2145
15.112,0.217
15.114,0.217
15.116,0.2165
15.118,0.227
15.12,0.231
15.122,0.239
15.124,0.2395
15.126,0.23
15.128,0.228
15.13,0.23
15.132,0.2305
15.134,0.242
15.136,0.2705
15.138,0.3015
15.14,0.3465
15.142,0.3895
15.144,0.435
15.146,0.473
15.148,0.501
15.15,0.511
15.152,0.492
15.154,0.464
15.156,0.4
15.158,0.3545
15.16,0.3005
15.162,0.284
15.164,0.2345
15.166,0.1585
15.168,0.0435
15.17,-0.0025
15.172,-0.07
15.174,-0.1015
15.176,-0.1305
15.178,-0.1295
15.18,-0.083
15.182,-0.0435
15.184,0.023
15.186,0.101
15.188,0.165
15.19,0.2115
15.192,0.3465
15.194,0.4265
15.196,0.5225
15.198,0.592
15.2,0.6235
15.202,0.563
15.204,0.4775
15.206,0.4455
15.208,0.414
15.21,0.4335
15.212,0.4365
15.214,0.45
15.216,0.4545
15.218,0.462
15.22,0.4275
15.222,0.396
15.224,0.3685
15.226,0.3405
15.228,0.324
15.23,0.3245
15.232,0.3125
15.234,0.3005
15.236,0.3115
15.238,0.314
15.24,0.3145
15.242,0.3125
15.244,0.311
15.246,0.3015
15.248,0.289
15.25,0.289
15.252,0.279
15.254,0.2825
15.256,0.2885
15.258,0.2915
15.26,0.2945
15.262,0.299
15.264,0.296
15.266,0.286
15.268,0.2775
15.27,0.2755
15.272,0.2725
15.274,0.27
15.276,0.2825
15.278,0.282
15.28,0.2845
15.282,0.288
15.284,0.2905
15.286,0.2785
15.288,0.273
15.29,0.2705
15.292,0.2655
15.294,0.261
15.296,0.2705
15.298,0.2765
15.3,0.2795
15.302,0.2845
15.304,0.286
15.306,0.275
15.308,0.272
15.31,0.2665
15.312,0.2615
15.314,0.2585
15.316,0.269
15.318,0.2715
15.32,0.2805
15.322,0.282
15.324,0.282
15.326,0.27
15.328,0.2635
15.33,0.258
15.332,0.2585
15.334,0.255
15.336,0.2635
15.338,0.2655
15.34,0.272
15.342,0.2735
15.344,0.271
15.346,0.261
15.348,0.262
15.35,0.255
15.352,0.249
15.354,0.248
15.356,0.2515
15.358,0.256
15.36,0.262
15.362,0.261
15.364,0.2635
15.366,0.253
15.368,0.2475
15.37,0.2405
15.372,0.234
15.374,0.235
15.376,0.239
15.378,0.2445
15.38,0.2475
15.382,0.2505
15.384,0.2435
15.386,0.2385
15.388,0.2315
15.39,0.232
15.392,0.2305
15.394,0.2265
15.396,0.235
15.398,0.2355
15.4,0.235
15.402,0.2425
15.404,0.237
15.406,0.235
15.408,0.2235
15.41,0.222
15.412,0.215
15.414,0.2145
15.416,0.221
15.418,0.228
15.42,0.2295
15.422,0.2385
15.424,0.2375
15.426,0.228
15.428,0.2245
15.43,0.219
15.432,0.2195
15.434,0.216
15.436,0.2245
15.438,0.227
15.44,0.234
15.442,0.2385
15.444,0.2345
15.446,0.2355
15.448,0.2295
15.45,0.2225
15.452,0.221
15.454,0.2225
15.456,0.2305
15.458,0.235
15.46,0.242
15.462,0.24
15.464,0.245
15.466,0.2415
15.468,0.232
15.47,0.2285
15.472,0.226
15.474,0.226
15.476,0.2355
15.478,0.2335
15.48,0.2385
15.482,0.2445
15.484,0.2435
15.486,0.2345
15.488,0.2325
15.49,0.223
15.492,0.2215
15.494,0.224
15.496,0.231
15.498,0.2355
15.5,0.2405
15.502,0.246
15.504,0.2415
15.506,0.24
15.508,0.228
15.51,0.2305
15.512,0.2205
15.514,0.221
15.516,0.228
15.518,0.236
15.52,0.2415
15.522,0.248
15.524,0.2435
15.526,0.2395
15.528,0.2335
15.53,0.2235
15.532,0.224
15.534,0.2275
15.536,0.23
15.538,0.232
15.54,0.2365
15.542,0.2455
15.544,0.241
15.546,0.236
15.548,0.23
15.55,0.222
15.552,0.218
15.554,0.221
15.556,0.2285
15.558,0.228
15.56,0.2345
15.562,0.239
15.564,0.231
15.566,0.2295
15.568,0.2255
15.57,0.2195
15.572,0.2135
15.574,0.2135
15.576,0.2235
15.578,0.225
15.58,0.2265
15.582,0.237
15.584,0.229
15.586,0.2255
15.588,0.216
15.59,0.218
15.592,0.208
15.594,0.209
15.596,0.2155
15.598,0.217
15.6,0.2235
15.602,0.2285
15.604,0.222
15.606,0.2145
15.608,0.209
15.61,0.2035
15.612,0.2035
15.614,0.2055
15.616,0.2085
15.618,0.2125
15.62,0.2125
15.622,0.2205
15.624,0.2205
15.626,0.211
15.628,0.205
15.63,0.204
15.632,0.1965
15.634,0.196
15.636,0.204
15.638,0.209
15.64,0.2115
15.642,0.217
15.644,0.2165
15.646,0.21
15.648,0.203
15.65,0.1975
15.652,0.196
15.654,0.1945
15.656,0.2015
15.658,0.209
15.66,0.209
15.662,0.2155
15.664,0.2135
15.666,0.2045
15.668,0.2015
15.67,0.195
15.672,0.191
15.674,0.1935
15.676,0.196
15.678,0.199
15.68,0.208
15.682,0.213
15.684,0.212
15.686,0.199
15.688,0.1995
15.69,0.196
15.692,0.1925
15.694,0.1845
15.696,0.188
15.698,0.1985
15.7,0.207
15.702,0.231
15.704,0.229
15.706,0.23
15.708,0.223
15.71,0.224
15.712,0.22
15.714,0.213
15.716,0.201
15.718,0.177
15.72,0.174
15.722,0.189
15.724,0.1925
15.726,0.187
15.728,0.159
15.73,0.144
15.732,0.1345
15.734,0.126
15.736,0.1335
15.738,0.1275
15.74,0.1185
15.742,0.1115
15.744,0.092
15.746,0.076
15.748,0.0725
15.75,0.07
15.752,0.0755
15.754,0.0795
15.756,0.0805
15.758,0.087
15.76,0.097
15.762,0.101
15.764,0.101
15.766,0.102
15.768,0.1155
15.77,0.129
15.772,0.1375
15.774,0.151
15.776,0.1665
15.778,0.182
15.78,0.1825
15.782,0.1875
15.784,0.1945
15.786,0.1865
15.788,0.1865
15.79,0.186
15.792,0.1825
15.794,0.18
15.796,0.1895
15.798,0.1925
15.8,0.1985
15.802,0.2025
15.804,0.2045
15.806,0.197
15.808,0.2
15.81,0.195
15.812,0.2055
15.814,0.218
15.816,0.252
15.818,0.2925
15.82,0.334
15.822,0.3795
15.824,0.424
15.826,0.457
15.828,0.4665
15.83,0.4645
15.832,0.448
15.834,0.388
15.836,0.3365
15.838,0.2835
15.84,0.2485
15.842,0.2285
15.844,0.1755
15.846,0.0595
15.848,-0.0085
15.85,-0.0465
15.852,-0.102
15.854,-0.145
15.856,-0.1705
15.858,-0.1165
15.86,-0.083
15.862,-0.03
15.864,0.0495
15.866,0.133
15.868,0.1835
15.87,0.2835
15.872,0.3835
15.874,0.461
15.876,0.544
15.878,0.586
15.88,0.5665
15.882,0.446
15.884,0.433
15.886,0.383
15.888,0.3855
15.89,0.3955
15.892,0.4025
15.894,0.404
15.896,0.4205
15.898,0.403
15.9,0.3705
15.902,0.349
15.904,0.3285
15.906,0.299
15.908,0.295
15.91,0.289
15.912,0.281
15.914,0.274
15.916,0.2865
15.918,0.28
15.92,0.287
15.922,0.289
15.924,0.2835
15.926,0.279
15.928,0.266
15.93,0.2625
15.932,0.253
15.934,0.2545
15.936,0.26
15.938,0.2625
15.94,0.266
15.942,0.274
15.944,0.2715
15.946,0.2595
15.948,0.264
15.95,0.252
15.952,0.246
15.954,0.249
15.956,0.249
15.958,0.256
15.96,0.2545
15.962,0.2715
15.964,0.2675
15.966,0.2585
15.968,0.25
15.97,0.2465
15.972,0.2385
15.974,0.2375
15.976,0.249
15.978,0.25
15.98,0.2565
15.982,0.2545
15.984,0.254
15.986,0.255
15.988,0.2415
15.99,0.241
15.992,0.2365
15.994,0.236
15.996,0.242
15.998,0.252
16,0.2495
16.002,0.2555
16.004,0.256
16.006,0.252
16.008,0.246
16.01,0.236
16.012,0.2375
16.014,0.2335
16.016,0.245
16.018,0.2505
16.02,0.255
16.022,0.258
16.024,0.2525
16.026,0.246
16.028,0.2385
16.03,0.241
16.032,0.2335
16.034,0.232
16.036,0.241
16.038,0.2445
16.04,0.2465
16.042,0.2525
16.044,0.2505
16.046,0.2435
16.048,0.235
16.05,0.228
16.052,0.2235
16.054,0.218
16.056,0.229
16.058,0.232
16.06,0.231
16.062,0.2395
16.064,0.236
16.066,0.223
16.068,0.215
16.07,0.2185
16.072,0.2125
16.074,0.213
16.076,0.2165
16.078,0.2295
16.08,0.224
16.082,0.2285
16.084,0.2285
16.086,0.2225
16.088,0.2135
16.09,0.209
16.092,0.205
16.094,0.2045
16.096,0.2205
16.098,0.2135
16.1,0.2255
16.102,0.233
16.104,0.2315
16.106,0.217
16.108,0.2325
16.11,0.2135
16.112,0.2185
16.114,0.2185
16.116,0.223
16.118,0.2255
16.12,0.23
16.122,0.234
16.124,0.2385
16.126,0.237
16.128,0.227
16.13,0.2345
16.132,0.2245
16.134,0.2215
16.136,0.2325
16.138,0.2395
16.14,0.245
16.142,0.2485
16.144,0.247
16.146,0.239
16.148,0.2325
16.15,0.231
16.152,0.234
16.154,0.23
16.156,0.237
16.158,0.241
16.16,0.245
16.162,0.2555
16.164,0.2505
16.166,0.2485
16.168,0.244
16.17,0.2315
16.172,0.24
16.174,0.2365
16.176,0.247
16.178,0.2505
16.18,0.253
16.182,0.2545
16.184,0.2605
16.186,0.2505
16.188,0.2495
16.19,0.2475
16.192,0.2385
16.194,0.2425
16.196,0.2495
16.198,0.243
16.2,0.2585
16.202,0.2605
16.204,0.2725
16.206,0.262
16.208,0.25
16.21,0.2475
16.212,0.2455
16.214,0.237
16.216,0.2515
16.218,0.25
16.22,0.262
16.222,0.272
16.224,0.274
16.226,0.2575
16.228,0.26
16.23,0.249
16.232,0.2455
16.234,0.2465
16.236,0.2565
16.238,0.2555
16.24,0.26
16.242,0.261
16.244,0.27
16.246,0.262
16.248,0.2585
16.25,0.252
16.252,0.253
16.254,0.245
16.256,0.254
16.258,0.2575
16.26,0.2665
16.262,0.2705
16.264,0.2635
16.266,0.2515
16.268,0.255
16.27,0.2465
16.272,0.236
16.274,0.2435
16.276,0.2525
16.278,0.2555
16.28,0.257
16.282,0.2645
16.284,0.2615
16.286,0.254
16.288,0.2565
16.29,0.2465
16.292,0.2475
16.294,0.2465
16.296,0.2565
16.298,0.2615
16.3,0.2615
16.302,0.275
16.304,0.271
16.306,0.258
16.308,0.2545
16.31,0.253
16.312,0.2455
16.314,0.245
16.316,0.247
16.318,0.263
16.32,0.2635
16.322,0.2655
16.324,0.2655
16.326,0.255
16.328,0.2475
16.33,0.251
16.332,0.248
16.334,0.2515
16.336,0.251
16.338,0.2545
16.34,0.263
16.342,0.2625
16.344,0.2705
16.346,0.259
16.348,0.254
16.35,0.25
16.352,0.242
16.354,0.25
16.356,0.247
16.358,0.259
16.36,0.268
16.362,0.2735
16.364,0.2745
16.366,0.27
16.368,0.2635
16.37,0.254
16.372,0.252
16.374,0.2545
16.376,0.2595
16.378,0.2665
16.38,0.2745
16.382,0.263
16.384,0.274
16.386,0.2665
16.388,0.256
16.39,0.2535
16.392,0.251
16.394,0.254
16.396,0.2665
16.398,0.2675
16.4,0.2725
16.402,0.2715
16.404,0.287
16.406,0.2685
16.408,0.2565
16.41,0.2555
16.412,0.2495
16.414,0.289
16.416,0.293
16.418,0.3
16.42,0.3045
16.422,0.312
16.424,0.3205
16.426,0.3065
16.428,0.287
16.43,0.251
16.432,0.232
16.434,0.245
16.436,0.2595
16.438,0.27
16.44,0.2585
16.442,0.255
16.444,0.242
16.446,0.217
16.448,0.2215
16.45,0.205
16.452,0.1935
16.454,0.18
16.456,0.1685
16.458,0.155
16.46,0.1615
16.462,0.172
16.464,0.173
16.466,0.165
16.468,0.153
16.47,0.166
16.472,0.1665
16.474,0.1775
16.476,0.175
16.478,0.181
16.48,0.206
16.482,0.2315
16.484,0.263
16.486,0.2605
16.488,0.2795
16.49,0.271
16.492,0.267
16.494,0.265
16.496,0.2785
16.498,0.287
16.5,0.3015
16.502,0.3025
16.504,0.299
16.506,0.2915
16.508,0.2885
16.51,0.2795
16.512,0.2795
16.514,0.2835
16.516,0.2895
16.518,0.2975
16.52,0.3085
16.522,0.317
16.524,0.33
16.526,0.331
16.528,0.368
16.53,0.398
16.532,0.4275
16.534,0.48
16.536,0.5235
16.538,0.5765
16.54,0.591
16.542,0.5805
16.544,0.554
16.546,0.482
16.548,0.414
16.55,0.364
16.552,0.33
16.554,0.277
16.556,0.2315
16.558,0.1285
16.56,0.0985
16.562,0.0335
16.564,-0.0085
16.566,-0.052
16.568,-0.0575
16.57,-0.011
16.572,0.0335
16.574,0.0805
16.576,0.195
16.578,0.2325
16.58,0.311
16.582,0.4165
16.584,0.514
16.586,0.5825
16.588,0.6505
16.59,0.6945
16.592,0.687
16.594,0.576
16.596,0.564
16.598,0.5195
16.6,0.5245
16.602,0.547
16.604,0.551
16.606,0.5515
16.608,0.5425
16.61,0.5355
16.612,0.4875
16.614,0.4465
16.616,0.437
16.618,0.422
16.62,0.416
16.622,0.43
16.624,0.419
16.626,0.414
16.628,0.4055
16.63,0.392
16.632,0.385
16.634,0.392
16.636,0.3855
16.638,0.392
16.64,0.3975
16.642,0.408
16.644,0.4
16.646,0.4
16.648,0.3825
16.65,0.381
16.652,0.376
16.654,0.37
16.656,0.375
16.658,0.3855
16.66,0.3835
16.662,0.392
16.664,0.391
16.666,0.3835
16.668,0.375
16.67,0.366
16.672,0.3645
16.674,0.3635
16.676,0.3665
16.678,0.3775
16.68,0.386
16.682,0.387
16.684,0.377
16.686,0.383
16.688,0.367
16.69,0.358
16.692,0.367
16.694,0.3655
16.696,0.3645
16.698,0.3785
16.7,0.3835
16.702,0.3805
16.704,0.388
16.706,0.3735
16.708,0.374
16.71,0.3725
16.712,0.3635
16.714,0.366
16.716,0.3725
16.718,0.3715
16.72,0.3755
16.722,0.3815
16.724,0.3715
16.726,0.3745
16.728,0.366
16.73,0.3505
16.732,0.362
16.734,0.359
16.736,0.3645
16.738,0.367
16.74,0.374
16.742,0.378
16.744,0.3755
16.746,0.3645
16.748,0.3625
16.75,0.3585
16.752,0.353
16.754,0.3465
16.756,0.3645
16.758,0.365
16.76,0.3625
16.762,0.366
16.764,0.356
16.766,0.3575
16.768,0.345
16.77,0.3355
16.772,0.3385
16.774,0.3445
16.776,0.3515
16.778,0.351
16.78,0.3565
16.782,0.3545
16.784,0.3615
16.786,0.3565
16.788,0.3455
16.79,0.338
16.792,0.3375
16.794,0.3325
16.796,0.3345
16.798,0.3405
16.8,0.341
16.802,0.3515
16.804,0.349
16.806,0.344
16.808,0.339
16.81,0.339
16.812,0.3365
16.814,0.3445
16.816,0.3445
16.818,0.354
16.82,0.3535
16.822,0.3615
16.824,0.357
16.826,0.3455
16.828,0.349
16.83,0.349
16.832,0.3435
16.834,0.3435
16.836,0.352
16.838,0.356
16.84,0.357
16.842,0.363
16.844,0.365
16.846,0.365
16.848,0.359
16.85,0.349
16.852,0.359
16.854,0.3605
16.856,0.3595
16.858,0.3705
16.86,0.371
16.862,0.378
16.864,0.379
16.866,0.3655
16.868,0.3605
16.87,0.362
16.872,0.3605
16.874,0.3655
16.876,0.3615
16.878,0.3695
16.88,0.3695
16.882,0.38
16.884,0.385
16.886,0.373
16.888,0.3635
16.89,0.3605
16.892,0.352
16.894,0.3665
16.896,0.3665
16.898,0.3765
16.9,0.3785
16.902,0.386
16.904,0.3835
16.906,0.3765
16.908,0.3685
16.91,0.3725
16.912,0.368
16.914,0.3575
16.916,0.382
16.918,0.368
16.92,0.38
16.922,0.3815
16.924,0.383
16.926,0.372
16.928,0.3725
16.93,0.3635
16.932,0.3595
16.934,0.359
16.936,0.3685
16.938,0.366
16.94,0.381
16.942,0.38
16.944,0.3795
16.946,0.3715
16.948,0.37
16.95,0.358
16.952,0.362
16.954,0.353
16.956,0.3665
16.958,0.3715
16.96,0.372
16.962,0.376
16.964,0.369
16.966,0.375
16.968,0.358
16.97,0.3585
16.972,0.356
16.974,0.3575
16.976,0.363
16.978,0.364
16.98,0.3725
16.982,0.376
16.984,0.366
16.986,0.36
16.988,0.366
16.99,0.342
16.992,0.35
16.994,0.3435
16.996,0.35
16.998,0.357
17,0.3715
17.002,0.374
17.004,0.3665
17.006,0.363
17.008,0.3515
17.01,0.349
17.012,0.3455
17.014,0.3475
17.016,0.3485
17.018,0.35
17.02,0.364
17.022,0.3675
17.024,0.3665
17.026,0.3585
17.028,0.351
17.03,0.3505
17.032,0.342
17.034,0.344
17.036,0.351
17.038,0.3495
17.04,0.3585
17.042,0.361
17.044,0.3635
17.046,0.352
17.048,0.3545
17.05,0.3465
17.052,0.3385
17.054,0.3435
17.056,0.352
17.058,0.351
17.06,0.351
17.062,0.3615
17.064,0.3565
17.066,0.354
17.068,0.347
17.07,0.342
17.072,0.334
17.074,0.335
17.076,0.334
17.078,0.3425
17.08,0.3535
17.082,0.3725
17.084,0.386
17.086,0.3785
17.088,0.3705
17.09,0.3725
17.092,0.3595
17.094,0.3755
17.096,0.365
17.098,0.346
17.1,0.32
17.102,0.3385
17.104,0.343
17.106,0.3405
17.108,0.329
17.11,0.301
17.112,0.296
17.114,0.2855
17.116,0.28
17.118,0.2925
17.12,0.2735
17.122,0.266
17.124,0.2515
17.126,0.224
17.128,0.224
17.13,0.2185
17.132,0.2155
17.134,0.216
17.136,0.234
17.138,0.231
17.14,0.252
17.142,0.2655
17.144,0.258
17.146,0.2645
17.148,0.256
17.15,0.274
17.152,0.289
17.154,0.308
17.156,0.3245
17.158,0.3395
17.16,0.332
17.162,0.341
17.164,0.3475
17.166,0.3405
17.168,0.3355
17.17,0.3375
17.172,0.3425
17.174,0.335
17.176,0.3485
17.178,0.343
17.18,0.3575
17.182,0.363
17.184,0.365
17.186,0.358
17.188,0.3565
17.19,0.3545
17.192,0.3595
17.194,0.371
17.196,0.4045
17.198,0.4425
17.2,0.483
17.202,0.537
17.204,0.58
17.206,0.6155
17.208,0.6305
17.21,0.636
17.212,0.6115
17.214,0.5625
17.216,0.495
17.218,0.45
17.22,0.4015
17.222,0.38
17.224,0.3185
17.226,0.2185
17.228,0.1495
17.23,0.1225
17.232,0.025
17.234,0.003
17.236,-0.0185
17.238,0.0275
17.24,0.085
17.242,0.1215
17.244,0.2075
